# TOPAS Version: 3.1.p3
# Parameter File: Dose.txt
# Results for scorer DoseAtWater
# Scored in component: PlacaAgua
# X in 100 bins of 0.01 cm
# Y in 100 bins of 0.01 cm
# Z in 1 bin  of 0.1 cm
# DoseToMedium ( Gy ) : Sum   
0, 0, 0, 4.806529614143074e-05
0, 1, 0, 4.806529614143074e-05
0, 2, 0, 4.806529614143074e-05
0, 3, 0, 0.0001441958884242922
0, 4, 0, 0
0, 5, 0, 4.806529614143074e-05
0, 6, 0, 0.0002403264661552384
0, 7, 0, 9.613059228286147e-05
0, 8, 0, 9.613059228286147e-05
0, 9, 0, 0.0002883917768485844
0, 10, 0, 0.0002403264661552384
0, 11, 0, 0.0002883917768485844
0, 12, 0, 9.613059228286147e-05
0, 13, 0, 0.0004726086917798966
0, 14, 0, 0.0002403264661552384
0, 15, 0, 0.0004325876652728766
0, 16, 0, 0.0004806529323104769
0, 17, 0, 0.0003845223691314459
0, 18, 0, 0.0001441958884242922
0, 19, 0, 0.0003845223691314459
0, 20, 0, 0.0004325876652728766
0, 21, 0, 0.0005287182284519076
0, 22, 0, 0.0006248488207347691
0, 23, 0, 0.0003845223691314459
0, 24, 0, 0.0005287182284519076
0, 25, 0, 0.0006248488207347691
0, 26, 0, 0.0006729141459800303
0, 27, 0, 0.0006248488207347691
0, 28, 0, 0.0006729141459800303
0, 29, 0, 0.0006248488207347691
0, 30, 0, 0.0009132405975833535
0, 31, 0, 0.0009613058646209538
0, 32, 0, 0.000817110005300492
0, 33, 0, 0.0007209794130176306
0, 34, 0, 0.0007690447382628918
0, 35, 0, 0.0009695396875031292
0, 36, 0, 0.0009530720999464393
0, 37, 0, 0.0009028842323459685
0, 38, 0, 0.001098117674700916
0, 39, 0, 0.0008651753305457532
0, 40, 0, 0.0009613058646209538
0, 41, 0, 0.001345828291960061
0, 42, 0, 0.001153567107394338
0, 43, 0, 0.001345828291960061
0, 44, 0, 0.001057436456903815
0, 45, 0, 0.0009132405975833535
0, 46, 0, 0.001009371131658554
0, 47, 0, 0.0005767835536971688
0, 48, 0, 0.001057436456903815
0, 49, 0, 0.0009132405975833535
0, 50, 0, 0.001105501782149076
0, 51, 0, 0.0007209794130176306
0, 52, 0, 0.0007209794130176306
0, 53, 0, 0.001057436456903815
0, 54, 0, 0.001298534451052547
0, 55, 0, 0.001200860948301852
0, 56, 0, 0.0007209794130176306
0, 57, 0, 0.000817110005300492
0, 58, 0, 0.001105501782149076
0, 59, 0, 0.0009613058646209538
0, 60, 0, 0.0008651753305457532
0, 61, 0, 0.0008579238201491535
0, 62, 0, 0.001094484701752663
0, 63, 0, 0.001153567107394338
0, 64, 0, 0.0005287182284519076
0, 65, 0, 0.0009613058646209538
0, 66, 0, 0.0008281565387733281
0, 67, 0, 0.000817110005300492
0, 68, 0, 0.0009092154214158654
0, 69, 0, 0.0004325876652728766
0, 70, 0, 0.0008651753305457532
0, 71, 0, 0.0005287182284519076
0, 72, 0, 0.000634087307844311
0, 73, 0, 0.0007496029720641673
0, 74, 0, 0.0004703007580246776
0, 75, 0, 0.0005287182284519076
0, 76, 0, 0.0005767835536971688
0, 77, 0, 0.0003845223691314459
0, 78, 0, 0.0003845223691314459
0, 79, 0, 0.0004325876652728766
0, 80, 0, 0.0004806529323104769
0, 81, 0, 0.0005687699886038899
0, 82, 0, 0.0001922611845657229
0, 83, 0, 0.0003845223691314459
0, 84, 0, 0.0004806529323104769
0, 85, 0, 4.806529614143074e-05
0, 86, 0, 0.0001441958884242922
0, 87, 0, 0.0001922611845657229
0, 88, 0, 0.0003845223691314459
0, 89, 0, 0.0001441958884242922
0, 90, 0, 0.0002883917768485844
0, 91, 0, 0.0002883917768485844
0, 92, 0, 0.0001922611845657229
0, 93, 0, 0.0001441958884242922
0, 94, 0, 4.806529614143074e-05
0, 95, 0, 4.806529614143074e-05
0, 96, 0, 0.0001922611845657229
0, 97, 0, 4.806529614143074e-05
0, 98, 0, 4.806529614143074e-05
0, 99, 0, 4.806529614143074e-05
1, 0, 0, 0.0001441958884242922
1, 1, 0, 0
1, 2, 0, 4.806529614143074e-05
1, 3, 0, 4.806529614143074e-05
1, 4, 0, 0.0001441958884242922
1, 5, 0, 4.806529614143074e-05
1, 6, 0, 0.0001441958884242922
1, 7, 0, 9.613059228286147e-05
1, 8, 0, 0.0002883917768485844
1, 9, 0, 9.613059228286147e-05
1, 10, 0, 5.560325371334329e-05
1, 11, 0, 0.0003289190935902297
1, 12, 0, 0.0002883917768485844
1, 13, 0, 0.000333595322445035
1, 14, 0, 0.0004806529323104769
1, 15, 0, 0.0004325876652728766
1, 16, 0, 0.0003845223691314459
1, 17, 0, 0.0004806529323104769
1, 18, 0, 0.0003845223691314459
1, 19, 0, 0.0004325876652728766
1, 20, 0, 0.0002883917768485844
1, 21, 0, 0.0001441958884242922
1, 22, 0, 0.0006729141459800303
1, 23, 0, 0.0004806529323104769
1, 24, 0, 0.0006729141459800303
1, 25, 0, 0.0007690447382628918
1, 26, 0, 0.0005767835536971688
1, 27, 0, 0.0007209794130176306
1, 28, 0, 0.0007209794130176306
1, 29, 0, 0.001057436456903815
1, 30, 0, 0.0006327718729153275
1, 31, 0, 0.0005767835536971688
1, 32, 0, 0.0008651753305457532
1, 33, 0, 0.001009371131658554
1, 34, 0, 0.0007690447382628918
1, 35, 0, 0.0007690447382628918
1, 36, 0, 0.001057436456903815
1, 37, 0, 0.001105501782149076
1, 38, 0, 0.001105501782149076
1, 39, 0, 0.0005767835536971688
1, 40, 0, 0.001009371131658554
1, 41, 0, 0.001730350661091506
1, 42, 0, 0.0009132405975833535
1, 43, 0, 0.001682285335846245
1, 44, 0, 0.001586154685355723
1, 45, 0, 0.0008651753305457532
1, 46, 0, 0.001057436456903815
1, 47, 0, 0.001297762966714799
1, 48, 0, 0.001288254861719906
1, 49, 0, 0.001307270955294371
1, 50, 0, 0.001403935253620148
1, 51, 0, 0.001431917073205113
1, 52, 0, 0.001201632316224277
1, 53, 0, 0.001201632316224277
1, 54, 0, 0.001153567107394338
1, 55, 0, 0.0009998974855989218
1, 56, 0, 0.001097692875191569
1, 57, 0, 0.001305571873672307
1, 58, 0, 0.0008651753305457532
1, 59, 0, 0.001245976774953306
1, 60, 0, 0.001057159621268511
1, 61, 0, 0.0008724267827346921
1, 62, 0, 0.0009132405975833535
1, 63, 0, 0.0004318082064855844
1, 64, 0, 0.001057436456903815
1, 65, 0, 0.0008651753305457532
1, 66, 0, 0.0009983247146010399
1, 67, 0, 0.0008651753305457532
1, 68, 0, 0.000773069856222719
1, 69, 0, 0.0006729141459800303
1, 70, 0, 0.0006248488207347691
1, 71, 0, 0.000817110005300492
1, 72, 0, 0.0007209794130176306
1, 73, 0, 0.0005767835536971688
1, 74, 0, 0.0009235927718691528
1, 75, 0, 0.0005287182284519076
1, 76, 0, 0.0004325876652728766
1, 77, 0, 0.0006248488207347691
1, 78, 0, 0.0005287182284519076
1, 79, 0, 0.0004325876652728766
1, 80, 0, 0.0005287182284519076
1, 81, 0, 0.0004325876652728766
1, 82, 0, 0.0003364570729900151
1, 83, 0, 0.0004325876652728766
1, 84, 0, 0.0004325876652728766
1, 85, 0, 0.0003845223691314459
1, 86, 0, 0.0002403264661552384
1, 87, 0, 0.0001441958884242922
1, 88, 0, 0.0003845223691314459
1, 89, 0, 9.613059228286147e-05
1, 90, 0, 9.613059228286147e-05
1, 91, 0, 0.0003364570729900151
1, 92, 0, 0.0002403264661552384
1, 93, 0, 4.806529614143074e-05
1, 94, 0, 0.0001922611845657229
1, 95, 0, 0.0001441958884242922
1, 96, 0, 9.613059228286147e-05
1, 97, 0, 0
1, 98, 0, 9.613059228286147e-05
1, 99, 0, 9.613059228286147e-05
2, 0, 0, 9.613059228286147e-05
2, 1, 0, 4.806529614143074e-05
2, 2, 0, 4.806529614143074e-05
2, 3, 0, 9.613059228286147e-05
2, 4, 0, 0.0003364570729900151
2, 5, 0, 9.613059228286147e-05
2, 6, 0, 0.0001922611845657229
2, 7, 0, 0.0003364570729900151
2, 8, 0, 0.0001441958884242922
2, 9, 0, 0.0001441958884242922
2, 10, 0, 0.0002403264661552384
2, 11, 0, 0.0004372898838482797
2, 12, 0, 0.0005720813060179353
2, 13, 0, 0.0001551018794998527
2, 14, 0, 0.0004325876652728766
2, 15, 0, 0.0002883917768485844
2, 16, 0, 0.0002883917768485844
2, 17, 0, 0.0005767835536971688
2, 18, 0, 0.0003364570729900151
2, 19, 0, 0.0005767835536971688
2, 20, 0, 0.0005287182284519076
2, 21, 0, 0.0003845223691314459
2, 22, 0, 0.0006729141459800303
2, 23, 0, 0.0004325876652728766
2, 24, 0, 0.0007690447382628918
2, 25, 0, 0.0006729141459800303
2, 26, 0, 0.001009371131658554
2, 27, 0, 0.0003845223691314459
2, 28, 0, 0.000817110005300492
2, 29, 0, 0.0008550527272745967
2, 30, 0, 0.001001448137685657
2, 31, 0, 0.001057436456903815
2, 32, 0, 0.001249697641469538
2, 33, 0, 0.001057436456903815
2, 34, 0, 0.0009613058646209538
2, 35, 0, 0.001009371131658554
2, 36, 0, 0.001017737900838256
2, 37, 0, 0.001001004478894174
2, 38, 0, 0.0009613058646209538
2, 39, 0, 0.001201632316224277
2, 40, 0, 0.001730350661091506
2, 41, 0, 0.001441958826035261
2, 42, 0, 0.00139389350079
2, 43, 0, 0.001297762966714799
2, 44, 0, 0.001201632316224277
2, 45, 0, 0.001337978057563305
2, 46, 0, 0.001355337211862206
2, 47, 0, 0.001115290448069572
2, 48, 0, 0.001682285335846245
2, 49, 0, 0.001110956422053277
2, 50, 0, 0.001388438977301121
2, 51, 0, 0.001345828291960061
2, 52, 0, 0.001307160593569279
2, 53, 0, 0.001057436456903815
2, 54, 0, 0.001441958826035261
2, 55, 0, 0.001739824307151139
2, 56, 0, 0.0009613058646209538
2, 57, 0, 0.0007690447382628918
2, 58, 0, 0.001297762966714799
2, 59, 0, 0.001441958826035261
2, 60, 0, 0.0009653035667724907
2, 61, 0, 0.001345828291960061
2, 62, 0, 0.001249697641469538
2, 63, 0, 0.00120241183321923
2, 64, 0, 0.001153567107394338
2, 65, 0, 0.000836439779959619
2, 66, 0, 0.0008651753305457532
2, 67, 0, 0.0006821487913839519
2, 68, 0, 0.001009371131658554
2, 69, 0, 0.001211397349834442
2, 70, 0, 0.001201632316224277
2, 71, 0, 0.0008651753305457532
2, 72, 0, 0.0007690447382628918
2, 73, 0, 0.0006729141459800303
2, 74, 0, 0.0007209794130176306
2, 75, 0, 0.0005767835536971688
2, 76, 0, 0.0002883917768485844
2, 77, 0, 0.0005287182284519076
2, 78, 0, 0.0007209794130176306
2, 79, 0, 0.0004806529323104769
2, 80, 0, 0.0006729141459800303
2, 81, 0, 0.0003845223691314459
2, 82, 0, 0.0004325876652728766
2, 83, 0, 0.0004806529323104769
2, 84, 0, 0.0002883917768485844
2, 85, 0, 0.0002883917768485844
2, 86, 0, 0.0003845223691314459
2, 87, 0, 0.0002883917768485844
2, 88, 0, 0.0002403264661552384
2, 89, 0, 0.0002403264661552384
2, 90, 0, 0.0002403264661552384
2, 91, 0, 0.0001922611845657229
2, 92, 0, 9.613059228286147e-05
2, 93, 0, 0.0001441958884242922
2, 94, 0, 9.613059228286147e-05
2, 95, 0, 9.613059228286147e-05
2, 96, 0, 9.613059228286147e-05
2, 97, 0, 9.613059228286147e-05
2, 98, 0, 0.0001441958884242922
2, 99, 0, 4.806529614143074e-05
3, 0, 0, 4.239365080138668e-05
3, 1, 0, 0.0001498675264883786
3, 2, 0, 0.0002883917768485844
3, 3, 0, 0
3, 4, 0, 4.806529614143074e-05
3, 5, 0, 0.0001922611845657229
3, 6, 0, 5.673572741216049e-05
3, 7, 0, 0.000279721338301897
3, 8, 0, 0.0002403264661552384
3, 9, 0, 0.0003364570729900151
3, 10, 0, 4.806529614143074e-05
3, 11, 0, 0.0002883917768485844
3, 12, 0, 0.0001922611845657229
3, 13, 0, 0.0002403264661552384
3, 14, 0, 0.0001922611845657229
3, 15, 0, 0.0004287049814593047
3, 16, 0, 0.0003403397276997566
3, 17, 0, 0.0006248488207347691
3, 18, 0, 0.000817110005300492
3, 19, 0, 0.0005287182284519076
3, 20, 0, 0.0006729141459800303
3, 21, 0, 0.0003845223691314459
3, 22, 0, 0.000480298389447853
3, 23, 0, 0.0009616604656912386
3, 24, 0, 0.001057436456903815
3, 25, 0, 0.0006729141459800303
3, 26, 0, 0.0009132405975833535
3, 27, 0, 0.0007301002042368054
3, 28, 0, 0.0008079892140813172
3, 29, 0, 0.0007311020162887871
3, 30, 0, 0.0007690447382628918
3, 31, 0, 0.0008651753305457532
3, 32, 0, 0.001308433711528778
3, 33, 0, 0.0005767835536971688
3, 34, 0, 0.001194452750496566
3, 35, 0, 0.001064616139046848
3, 36, 0, 0.001201632316224277
3, 37, 0, 0.001057436456903815
3, 38, 0, 0.00139389350079
3, 39, 0, 0.001441958826035261
3, 40, 0, 0.00120523467194289
3, 41, 0, 0.001402668654918671
3, 42, 0, 0.001576587674207985
3, 43, 0, 0.00139389350079
3, 44, 0, 0.001441958826035261
3, 45, 0, 0.002074657939374447
3, 46, 0, 0.001346471719443798
3, 47, 0, 0.001515623182058334
3, 48, 0, 0.001920381910167634
3, 49, 0, 0.001538089476525784
3, 50, 0, 0.001254461240023375
3, 51, 0, 0.001586154685355723
3, 52, 0, 0.001624822383746505
3, 53, 0, 0.001441958826035261
3, 54, 0, 0.001490024151280522
3, 55, 0, 0.001489407382905483
3, 56, 0, 0.001490640919655561
3, 57, 0, 0.00139389350079
3, 58, 0, 0.002018742263317108
3, 59, 0, 0.000957312760874629
3, 60, 0, 0.001490024151280522
3, 61, 0, 0.001105501782149076
3, 62, 0, 0.001201632316224277
3, 63, 0, 0.001057436456903815
3, 64, 0, 0.001057436456903815
3, 65, 0, 0.001374563784338534
3, 66, 0, 0.001047017169184983
3, 67, 0, 0.001010555773973465
3, 68, 0, 0.0009613058646209538
3, 69, 0, 0.001191867282614112
3, 70, 0, 0.001009371131658554
3, 71, 0, 0.001009371131658554
3, 72, 0, 0.0007595950155518949
3, 73, 0, 0.001009939704090357
3, 74, 0, 0.001153567107394338
3, 75, 0, 0.0007209794130176306
3, 76, 0, 0.0007690447382628918
3, 77, 0, 0.0004806529323104769
3, 78, 0, 0.0003845223691314459
3, 79, 0, 0.0007209794130176306
3, 80, 0, 0.0005287182284519076
3, 81, 0, 0.0004325876652728766
3, 82, 0, 0.0005767835536971688
3, 83, 0, 0.0005287182284519076
3, 84, 0, 9.613059228286147e-05
3, 85, 0, 9.613059228286147e-05
3, 86, 0, 0.0004806529323104769
3, 87, 0, 0.0002403264661552384
3, 88, 0, 0.0003845223691314459
3, 89, 0, 0.0002883917768485844
3, 90, 0, 0.0002883917768485844
3, 91, 0, 0.0001852581917773932
3, 92, 0, 0.0002403264661552384
3, 93, 0, 0.0002883917768485844
3, 94, 0, 0.0003845223691314459
3, 95, 0, 9.613059228286147e-05
3, 96, 0, 0
3, 97, 0, 9.613059228286147e-05
3, 98, 0, 0.0001441958884242922
3, 99, 0, 0
4, 0, 0, 4.806529614143074e-05
4, 1, 0, 9.613059228286147e-05
4, 2, 0, 0
4, 3, 0, 0.0001441958884242922
4, 4, 0, 0.0001441958884242922
4, 5, 0, 0.0002403264661552384
4, 6, 0, 0.0001922611845657229
4, 7, 0, 0.0001441958884242922
4, 8, 0, 4.806529614143074e-05
4, 9, 0, 0.0004325876652728766
4, 10, 0, 0.0003364570729900151
4, 11, 0, 0.0002362508676014841
4, 12, 0, 0.0002444020938128233
4, 13, 0, 0.0004806529323104769
4, 14, 0, 0.0002403264661552384
4, 15, 0, 0.0003893831453751773
4, 16, 0, 0.0003845223691314459
4, 17, 0, 0.0003457891289144754
4, 18, 0, 0.0007116473279893398
4, 19, 0, 0.0006741817342117429
4, 20, 0, 0.0006716465577483177
4, 21, 0, 0.0006729141459800303
4, 22, 0, 0.0006729141459800303
4, 23, 0, 0.0005287182284519076
4, 24, 0, 0.001057436456903815
4, 25, 0, 0.001148063573054969
4, 26, 0, 0.001159070641733706
4, 27, 0, 0.0007600101525895298
4, 28, 0, 0.0004325876652728766
4, 29, 0, 0.0009751416509971023
4, 30, 0, 0.0008092866046354175
4, 31, 0, 0.001009371131658554
4, 32, 0, 0.00123902689665556
4, 33, 0, 0.001153567107394338
4, 34, 0, 0.001634220010600984
4, 35, 0, 0.001153567107394338
4, 36, 0, 0.001586154685355723
4, 37, 0, 0.001105501782149076
4, 38, 0, 0.001778415869921446
4, 39, 0, 0.001970677170902491
4, 40, 0, 0.001534487120807171
4, 41, 0, 0.001298888004384935
4, 42, 0, 0.001301737152971327
4, 43, 0, 0.001645046519115567
4, 44, 0, 0.002007915871217847
4, 45, 0, 0.001153567107394338
4, 46, 0, 0.001647432567551732
4, 47, 0, 0.001396418665535748
4, 48, 0, 0.00173258048016578
4, 49, 0, 0.001400086330249906
4, 50, 0, 0.002121422905474901
4, 51, 0, 0.001538089476525784
4, 52, 0, 0.001346121192909777
4, 53, 0, 0.001634220010600984
4, 54, 0, 0.001249697525054216
4, 55, 0, 0.001682285335846245
4, 56, 0, 0.001490024151280522
4, 57, 0, 0.001685120980255306
4, 58, 0, 0.001730350661091506
4, 59, 0, 0.001053772401064634
4, 60, 0, 0.001153567107394338
4, 61, 0, 0.001305345329456031
4, 62, 0, 0.001578572322614491
4, 63, 0, 0.0008651753305457532
4, 64, 0, 0.001441958826035261
4, 65, 0, 0.001441958826035261
4, 66, 0, 0.001441958826035261
4, 67, 0, 0.001398789347149432
4, 68, 0, 0.001437062979675829
4, 69, 0, 0.001019737916067243
4, 70, 0, 0.001009371131658554
4, 71, 0, 0.0008651753305457532
4, 72, 0, 0.001114382990635931
4, 73, 0, 0.0005941329291090369
4, 74, 0, 0.001288943574763834
4, 75, 0, 0.0007588733569718897
4, 76, 0, 0.00105727999471128
4, 77, 0, 0.0007209794130176306
4, 78, 0, 0.0009133658022619784
4, 79, 0, 0.0004806529323104769
4, 80, 0, 0.0006248488207347691
4, 81, 0, 0.0004806529323104769
4, 82, 0, 0.0004325876652728766
4, 83, 0, 0.0005767835536971688
4, 84, 0, 0.0004806529323104769
4, 85, 0, 0.0004325876652728766
4, 86, 0, 0.0003845223691314459
4, 87, 0, 0.0002403264661552384
4, 88, 0, 0.0001922611845657229
4, 89, 0, 0.0001922611845657229
4, 90, 0, 0.0001441958884242922
4, 91, 0, 0.0003915253328159451
4, 92, 0, 0.0003364570729900151
4, 93, 0, 0.0001922611845657229
4, 94, 0, 0.0001922611845657229
4, 95, 0, 0.0001922611845657229
4, 96, 0, 0.0002403264661552384
4, 97, 0, 9.613059228286147e-05
4, 98, 0, 0.0001441958884242922
4, 99, 0, 4.806529614143074e-05
5, 0, 0, 9.613059228286147e-05
5, 1, 0, 9.613059228286147e-05
5, 2, 0, 9.613059228286147e-05
5, 3, 0, 0.0001441958884242922
5, 4, 0, 0.0001441958884242922
5, 5, 0, 0.0001922611845657229
5, 6, 0, 9.613059228286147e-05
5, 7, 0, 0.0001441958884242922
5, 8, 0, 4.806529614143074e-05
5, 9, 0, 0.0004325876652728766
5, 10, 0, 0.0001441958884242922
5, 11, 0, 0.0005287182284519076
5, 12, 0, 0.0002403264661552384
5, 13, 0, 0.0004236369859427214
5, 14, 0, 0.0004806529323104769
5, 15, 0, 0.0008603145251981914
5, 16, 0, 0.0006248488207347691
5, 17, 0, 0.0002883917768485844
5, 18, 0, 0.0006729141459800303
5, 19, 0, 0.0009573543793521821
5, 20, 0, 0.0006201373762451112
5, 21, 0, 0.0006776255322620273
5, 22, 0, 0.001009371131658554
5, 23, 0, 0.0006248488207347691
5, 24, 0, 0.000817110005300492
5, 25, 0, 0.0009613058646209538
5, 26, 0, 0.0005712768761441112
5, 27, 0, 0.001274316804483533
5, 28, 0, 0.001191554474644363
5, 29, 0, 0.001243685255758464
5, 30, 0, 0.001538089476525784
5, 31, 0, 0.001778415869921446
5, 32, 0, 0.0009613058646209538
5, 33, 0, 0.001345828291960061
5, 34, 0, 0.001490024151280522
5, 35, 0, 0.001298172399401665
5, 36, 0, 0.001592510263435543
5, 37, 0, 0.001538089476525784
5, 38, 0, 0.001490024151280522
5, 39, 0, 0.001249697641469538
5, 40, 0, 0.001634063431993127
5, 41, 0, 0.001816581003367901
5, 42, 0, 0.002072400413453579
5, 43, 0, 0.001970677170902491
5, 44, 0, 0.001682285335846245
5, 45, 0, 0.00200729095377028
5, 46, 0, 0.001680524088442326
5, 47, 0, 0.001778415869921446
5, 48, 0, 0.002114872913807631
5, 49, 0, 0.00167609250638634
5, 50, 0, 0.001767102512530982
5, 51, 0, 0.00235169637016952
5, 52, 0, 0.001541299629025161
5, 53, 0, 0.001634220010600984
5, 54, 0, 0.001586154801771045
5, 55, 0, 0.001586154685355723
5, 56, 0, 0.002066807588562369
5, 57, 0, 0.001439123181626201
5, 58, 0, 0.001624492695555091
5, 59, 0, 0.001649207901209593
5, 60, 0, 0.00153075868729502
5, 61, 0, 0.001826481195166707
5, 62, 0, 0.001105810049921274
5, 63, 0, 0.001441650558263063
5, 64, 0, 0.001538089476525784
5, 65, 0, 0.001201632316224277
5, 66, 0, 0.00139389350079
5, 67, 0, 0.0008651753305457532
5, 68, 0, 0.001586154685355723
5, 69, 0, 0.001671918551437557
5, 70, 0, 0.0009613058646209538
5, 71, 0, 0.000817110005300492
5, 72, 0, 0.000817110005300492
5, 73, 0, 0.001193102332763374
5, 74, 0, 0.0009132405975833535
5, 75, 0, 0.00110296905040741
5, 76, 0, 0.0008755031740292907
5, 77, 0, 0.0005767835536971688
5, 78, 0, 0.0007208542083390057
5, 79, 0, 0.0008651753305457532
5, 80, 0, 0.0008651753305457532
5, 81, 0, 0.0004325876652728766
5, 82, 0, 0.0005287182284519076
5, 83, 0, 0.0004325876652728766
5, 84, 0, 9.613059228286147e-05
5, 85, 0, 0.0004806529323104769
5, 86, 0, 0.0002883917768485844
5, 87, 0, 0.0001441958884242922
5, 88, 0, 0.0003845223691314459
5, 89, 0, 0.0004325876652728766
5, 90, 0, 0.0003364570729900151
5, 91, 0, 0.0003364570729900151
5, 92, 0, 0.0002508581674192101
5, 93, 0, 0.0004220559494569898
5, 94, 0, 0.0001922611845657229
5, 95, 0, 4.806529614143074e-05
5, 96, 0, 0.0003364570729900151
5, 97, 0, 9.613059228286147e-05
5, 98, 0, 0.0003364570729900151
5, 99, 0, 0.0002403264661552384
6, 0, 0, 0.0002403264661552384
6, 1, 0, 9.613059228286147e-05
6, 2, 0, 0.0001922611845657229
6, 3, 0, 0.0002883917768485844
6, 4, 0, 9.613059228286147e-05
6, 5, 0, 0.0001441958884242922
6, 6, 0, 0.0001922611845657229
6, 7, 0, 0.0002501204726286232
6, 8, 0, 0.0004227936442475766
6, 9, 0, 0.0005767835536971688
6, 10, 0, 0.0003364570729900151
6, 11, 0, 0.0003845223691314459
6, 12, 0, 0.0001441958884242922
6, 13, 0, 0.0003934730193577707
6, 14, 0, 0.0005287182284519076
6, 15, 0, 0.0001922611845657229
6, 16, 0, 0.0003364570729900151
6, 17, 0, 0.0004325876652728766
6, 18, 0, 0.000817110005300492
6, 19, 0, 0.0004365391796454787
6, 20, 0, 0.0008651753305457532
6, 21, 0, 0.001201632316224277
6, 22, 0, 0.0006248488207347691
6, 23, 0, 0.000817110005300492
6, 24, 0, 0.000817110005300492
6, 25, 0, 0.001153567107394338
6, 26, 0, 0.0006729141459800303
6, 27, 0, 0.001095418003387749
6, 28, 0, 0.001355911954306066
6, 29, 0, 0.001387815340422094
6, 30, 0, 0.001153567107394338
6, 31, 0, 0.001642841845750809
6, 32, 0, 0.00139389350079
6, 33, 0, 0.001634220010600984
6, 34, 0, 0.001970677170902491
6, 35, 0, 0.001642932766117156
6, 36, 0, 0.001676826155744493
6, 37, 0, 0.002013188786804676
6, 38, 0, 0.0018800999969244
6, 39, 0, 0.001778523321263492
6, 40, 0, 0.001778464997187257
6, 41, 0, 0.001778415869921446
6, 42, 0, 0.001730350661091506
6, 43, 0, 0.001817094394937158
6, 44, 0, 0.001745132030919194
6, 45, 0, 0.001778415869921446
6, 46, 0, 0.001874546520411968
6, 47, 0, 0.002001855755224824
6, 48, 0, 0.001637330977246165
6, 49, 0, 0.001490024151280522
6, 50, 0, 0.001874546520411968
6, 51, 0, 0.002251922618597746
6, 52, 0, 0.002162938239052892
6, 53, 0, 0.001918024034239352
6, 54, 0, 0.001831069006584585
6, 55, 0, 0.001739185652695596
6, 56, 0, 0.002211003564298153
6, 57, 0, 0.002211003564298153
6, 58, 0, 0.001932339044287801
6, 59, 0, 0.002162938239052892
6, 60, 0, 0.002063714433461428
6, 61, 0, 0.001402306137606502
6, 62, 0, 0.001874546520411968
6, 63, 0, 0.001730350661091506
6, 64, 0, 0.001826481195166707
6, 65, 0, 0.001826481195166707
6, 66, 0, 0.00139389350079
6, 67, 0, 0.002013961551710963
6, 68, 0, 0.001110282726585865
6, 69, 0, 0.001297762966714799
6, 70, 0, 0.001403798465617001
6, 71, 0, 0.0009132405975833535
6, 72, 0, 0.001441958826035261
6, 73, 0, 0.001490024151280522
6, 74, 0, 0.001105501782149076
6, 75, 0, 0.001451062504202127
6, 76, 0, 0.001050865626893938
6, 77, 0, 0.0008651753305457532
6, 78, 0, 0.0009613058646209538
6, 79, 0, 0.0009613058646209538
6, 80, 0, 0.0005287182284519076
6, 81, 0, 0.0007209794130176306
6, 82, 0, 0.0007599481614306569
6, 83, 0, 0.000578738225158304
6, 84, 0, 0.0002883917768485844
6, 85, 0, 0.0004710314969997853
6, 86, 0, 0.0003460785083007067
6, 87, 0, 0.0003364570729900151
6, 88, 0, 0.0003845223691314459
6, 89, 0, 0.0002403264661552384
6, 90, 0, 0.000298753147944808
6, 91, 0, 0.0003845223691314459
6, 92, 0, 0.0003364570729900151
6, 93, 0, 0.0001922611845657229
6, 94, 0, 0.0002403264661552384
6, 95, 0, 0.0003364570729900151
6, 96, 0, 0.0002403264661552384
6, 97, 0, 0.0001922611845657229
6, 98, 0, 0.0001441958884242922
6, 99, 0, 0.0002403264661552384
7, 0, 0, 0.0001922611845657229
7, 1, 0, 9.613059228286147e-05
7, 2, 0, 0.0001441958884242922
7, 3, 0, 0.0001441958884242922
7, 4, 0, 0.0001922611845657229
7, 5, 0, 0.0001922611845657229
7, 6, 0, 0.0002883917768485844
7, 7, 0, 0.0004325876652728766
7, 8, 0, 0.0005287182284519076
7, 9, 0, 0.0003845223691314459
7, 10, 0, 0.0003845223691314459
7, 11, 0, 0.0007690447382628918
7, 12, 0, 0.0003845223691314459
7, 13, 0, 0.0003845223691314459
7, 14, 0, 0.0008655700949020684
7, 15, 0, 0.0005235684220679104
7, 16, 0, 0.001014520996250212
7, 17, 0, 0.0003880847652908415
7, 18, 0, 0.0009734624763950706
7, 19, 0, 0.0009507415816187859
7, 20, 0, 0.0005767835536971688
7, 21, 0, 0.0009132405975833535
7, 22, 0, 0.0009983893251046538
7, 23, 0, 0.001201632316224277
7, 24, 0, 0.001057436456903815
7, 25, 0, 0.0009132405975833535
7, 26, 0, 0.001345828291960061
7, 27, 0, 0.001345828291960061
7, 28, 0, 0.00139389350079
7, 29, 0, 0.0009673841414041817
7, 30, 0, 0.001490024151280522
7, 31, 0, 0.001577532850205898
7, 32, 0, 0.001579240779392421
7, 33, 0, 0.001730350661091506
7, 34, 0, 0.001826481195166707
7, 35, 0, 0.001778415869921446
7, 36, 0, 0.001574434689246118
7, 37, 0, 0.001483188127167523
7, 38, 0, 0.00188308407086879
7, 39, 0, 0.001826782012358308
7, 40, 0, 0.001970677170902491
7, 41, 0, 0.001730350661091506
7, 42, 0, 0.002259068889543414
7, 43, 0, 0.002013347810134292
7, 44, 0, 0.002451329957693815
7, 45, 0, 0.002355199540033937
7, 46, 0, 0.002259068889543414
7, 47, 0, 0.001990888267755508
7, 48, 0, 0.002173414453864098
7, 49, 0, 0.002114906907081604
7, 50, 0, 0.001730350661091506
7, 51, 0, 0.00217008450999856
7, 52, 0, 0.002638781676068902
7, 53, 0, 0.002378236036747694
7, 54, 0, 0.002186866011470556
7, 55, 0, 0.002289200434461236
7, 56, 0, 0.002451329957693815
7, 57, 0, 0.001778415869921446
7, 58, 0, 0.002508894074708223
7, 59, 0, 0.002057308796793222
7, 60, 0, 0.001734673860482872
7, 61, 0, 0.001961034489795566
7, 62, 0, 0.00202938774600625
7, 63, 0, 0.001932371989823878
7, 64, 0, 0.001730350661091506
7, 65, 0, 0.001153567107394338
7, 66, 0, 0.001345828291960061
7, 67, 0, 0.001255902578122914
7, 68, 0, 0.001868341583758593
7, 69, 0, 0.001297762966714799
7, 70, 0, 0.001326555036939681
7, 71, 0, 0.001018739421851933
7, 72, 0, 0.001009371131658554
7, 73, 0, 0.0009613058646209538
7, 74, 0, 0.001345828291960061
7, 75, 0, 0.001105501782149076
7, 76, 0, 0.001009371131658554
7, 77, 0, 0.0009997686138376594
7, 78, 0, 0.0007209794130176306
7, 79, 0, 0.001009371131658554
7, 80, 0, 0.001009371131658554
7, 81, 0, 0.0006248488207347691
7, 82, 0, 0.0009613058646209538
7, 83, 0, 0.0005839253426529467
7, 84, 0, 0.0005767835536971688
7, 85, 0, 0.0004325876652728766
7, 86, 0, 0.0003845223691314459
7, 87, 0, 0.0004325876652728766
7, 88, 0, 0.0006729141459800303
7, 89, 0, 0.0003845223691314459
7, 90, 0, 0.0003741609980352223
7, 91, 0, 0.0003364570729900151
7, 92, 0, 0.0001441958884242922
7, 93, 0, 0.0001922611845657229
7, 94, 0, 0.0005189994699321687
7, 95, 0, 0.0001922611845657229
7, 96, 0, 0.0003364570729900151
7, 97, 0, 9.613059228286147e-05
7, 98, 0, 9.613059228286147e-05
7, 99, 0, 0.0001922611845657229
8, 0, 0, 9.613059228286147e-05
8, 1, 0, 9.613059228286147e-05
8, 2, 0, 0.0002403264661552384
8, 3, 0, 4.806529614143074e-05
8, 4, 0, 0.0003845223691314459
8, 5, 0, 0.0002883917768485844
8, 6, 0, 0.0003845223691314459
8, 7, 0, 0.0002883917768485844
8, 8, 0, 0.0002883917768485844
8, 9, 0, 0.0002883917768485844
8, 10, 0, 0.0007690447382628918
8, 11, 0, 0.0004325876652728766
8, 12, 0, 0.0004325876652728766
8, 13, 0, 0.0006729141459800303
8, 14, 0, 0.0005763887311331928
8, 15, 0, 0.000731109525077045
8, 16, 0, 0.0007690447382628918
8, 17, 0, 0.0005732211284339428
8, 18, 0, 0.000767452409490943
8, 19, 0, 0.0004806529323104769
8, 20, 0, 0.0009664801764301956
8, 21, 0, 0.001436784514226019
8, 22, 0, 0.001116483705118299
8, 23, 0, 0.00139389350079
8, 24, 0, 0.0008651753305457532
8, 25, 0, 0.001153567107394338
8, 26, 0, 0.001249697641469538
8, 27, 0, 0.00158161181025207
8, 28, 0, 0.001494567026384175
8, 29, 0, 0.001826481195166707
8, 30, 0, 0.001922611729241908
8, 31, 0, 0.001441958826035261
8, 32, 0, 0.001697340165264904
8, 33, 0, 0.002058666897937655
8, 34, 0, 0.001730350661091506
8, 35, 0, 0.001922611729241908
8, 36, 0, 0.002066912362352014
8, 37, 0, 0.001826376654207706
8, 38, 0, 0.002259068889543414
8, 39, 0, 0.001676695537753403
8, 40, 0, 0.003124244045466185
8, 41, 0, 0.002595525933429599
8, 42, 0, 0.00216700742021203
8, 43, 0, 0.002409484935924411
8, 44, 0, 0.002388425404205918
8, 45, 0, 0.002549018245190382
8, 46, 0, 0.002545902971178293
8, 47, 0, 0.002633399330079556
8, 48, 0, 0.002156218513846397
8, 49, 0, 0.001967137213796377
8, 50, 0, 0.002597073325887322
8, 51, 0, 0.00240171723999083
8, 52, 0, 0.002762345131486654
8, 53, 0, 0.003129605203866959
8, 54, 0, 0.002543667098507285
8, 55, 0, 0.001823976519517601
8, 56, 0, 0.002261763671413064
8, 57, 0, 0.002212829189375043
8, 58, 0, 0.002250134479254484
8, 59, 0, 0.002633181400597095
8, 60, 0, 0.002547460608184338
8, 61, 0, 0.002355199540033937
8, 62, 0, 0.002344554057344794
8, 63, 0, 0.002594213234260678
8, 64, 0, 0.001730350661091506
8, 65, 0, 0.002211003564298153
8, 66, 0, 0.002008241135627031
8, 67, 0, 0.001881539239548147
8, 68, 0, 0.002008083742111921
8, 69, 0, 0.001449294970370829
8, 70, 0, 0.001538089476525784
8, 71, 0, 0.001682285335846245
8, 72, 0, 0.00139389350079
8, 73, 0, 0.000817110005300492
8, 74, 0, 0.001057436456903815
8, 75, 0, 0.001057436456903815
8, 76, 0, 0.0006729141459800303
8, 77, 0, 0.001211234950460494
8, 78, 0, 0.001153567107394338
8, 79, 0, 0.0008113693329505622
8, 80, 0, 0.0008228506776504219
8, 81, 0, 0.0007209794130176306
8, 82, 0, 0.0006248488207347691
8, 83, 0, 0.0004806529323104769
8, 84, 0, 0.0007690447382628918
8, 85, 0, 0.0002403264661552384
8, 86, 0, 0.0006248488207347691
8, 87, 0, 0.0003364570729900151
8, 88, 0, 0.0003364570729900151
8, 89, 0, 0.0003364570729900151
8, 90, 0, 0.0002403264661552384
8, 91, 0, 0.0003845223691314459
8, 92, 0, 0.0002883917768485844
8, 93, 0, 0.0004325876652728766
8, 94, 0, 0.0001539146469440311
8, 95, 0, 0.0002403264661552384
8, 96, 0, 0.0004806529323104769
8, 97, 0, 0.0001441958884242922
8, 98, 0, 0.0001441958884242922
8, 99, 0, 0.0001922611845657229
9, 0, 0, 4.806529614143074e-05
9, 1, 0, 0.0003845223691314459
9, 2, 0, 0.0002883917768485844
9, 3, 0, 9.613059228286147e-05
9, 4, 0, 0.0002403264661552384
9, 5, 0, 0.0006248488207347691
9, 6, 0, 0.0004325876652728766
9, 7, 0, 0.0003364570729900151
9, 8, 0, 0.0004325876652728766
9, 9, 0, 0.0006248488207347691
9, 10, 0, 0.0002883917768485844
9, 11, 0, 0.0003364570729900151
9, 12, 0, 0.0005767835536971688
9, 13, 0, 0.0005767835536971688
9, 14, 0, 0.0006248488207347691
9, 15, 0, 0.0009511758107692003
9, 16, 0, 0.0007690447382628918
9, 17, 0, 0.001105501782149076
9, 18, 0, 0.0008651753305457532
9, 19, 0, 0.0009613058646209538
9, 20, 0, 0.001292870030738413
9, 21, 0, 0.001350721227936447
9, 22, 0, 0.001057436456903815
9, 23, 0, 0.0008651753305457532
9, 24, 0, 0.00135506724473089
9, 25, 0, 0.0009628102998249233
9, 26, 0, 0.001779116340912879
9, 27, 0, 0.001000800402835011
9, 28, 0, 0.001456701429560781
9, 29, 0, 0.001289386302232742
9, 30, 0, 0.001682285335846245
9, 31, 0, 0.001490024151280522
9, 32, 0, 0.001345828291960061
9, 33, 0, 0.002259068889543414
9, 34, 0, 0.001297762966714799
9, 35, 0, 0.002162938239052892
9, 36, 0, 0.002255099127069116
9, 37, 0, 0.002499395282939076
9, 38, 0, 0.00198024045675993
9, 39, 0, 0.001774141448549926
9, 40, 0, 0.002307134214788675
9, 41, 0, 0.002691656583920121
9, 42, 0, 0.002211003564298153
9, 43, 0, 0.002691656583920121
9, 44, 0, 0.002407814608886838
9, 45, 0, 0.003648780286312103
9, 46, 0, 0.002883917652070522
9, 47, 0, 0.002595525933429599
9, 48, 0, 0.003215864533558488
9, 49, 0, 0.002983554266393185
9, 50, 0, 0.002018742263317108
9, 51, 0, 0.003415852086618543
