# TOPAS Version: 3.1.p3
# Parameter File: Input.in
# Results for scorer Fluence
# Scored in component: ScoringCylinder
# R in 100 bins of 0.01 cm
# Phi in 1 bin  of 360 deg
# Z in 2000 bins of 0.02 cm
# Fluence ( /mm2 ) : Sum   
0, 0, 0, 3590902.25
0, 0, 1, 3722875.5
0, 0, 2, 3734048.25
0, 0, 3, 3736702.25
0, 0, 4, 3742816.5
0, 0, 5, 3737212.25
0, 0, 6, 3743949.25
0, 0, 7, 3738867.25
0, 0, 8, 3738269
0, 0, 9, 3742926.75
0, 0, 10, 3736109.75
0, 0, 11, 3736493
0, 0, 12, 3738316.75
0, 0, 13, 3734202.75
0, 0, 14, 3734468
0, 0, 15, 3736245.25
0, 0, 16, 3731930.5
0, 0, 17, 3734860.25
0, 0, 18, 3725421.25
0, 0, 19, 3725059.25
0, 0, 20, 3725496.25
0, 0, 21, 3729174.5
0, 0, 22, 3723533.5
0, 0, 23, 3714608
0, 0, 24, 3709906
0, 0, 25, 3707512.5
0, 0, 26, 3691334.5
0, 0, 27, 3684805.25
0, 0, 28, 3685269.25
0, 0, 29, 3679749.5
0, 0, 30, 3666491.5
0, 0, 31, 3656759
0, 0, 32, 3648984.5
0, 0, 33, 3635452.5
0, 0, 34, 3618076
0, 0, 35, 3600225.25
0, 0, 36, 3590387.5
0, 0, 37, 3565086.25
0, 0, 38, 3543266.75
0, 0, 39, 3515242.25
0, 0, 40, 3493407.75
0, 0, 41, 3467224.25
0, 0, 42, 3434557
0, 0, 43, 3402127.5
0, 0, 44, 3370369.75
0, 0, 45, 3328788.25
0, 0, 46, 3287461
0, 0, 47, 3240302.5
0, 0, 48, 3197569
0, 0, 49, 3145298.5
0, 0, 50, 3096857.25
0, 0, 51, 3039038.75
0, 0, 52, 2982476
0, 0, 53, 2928467
0, 0, 54, 2864335.5
0, 0, 55, 2814862
0, 0, 56, 2753213.75
0, 0, 57, 2693343.75
0, 0, 58, 2630259.25
0, 0, 59, 2568450
0, 0, 60, 2514064.5
0, 0, 61, 2454055.25
0, 0, 62, 2393915
0, 0, 63, 2326847.5
0, 0, 64, 2272874.75
0, 0, 65, 2214378.25
0, 0, 66, 2152245.75
0, 0, 67, 2097099
0, 0, 68, 2039015.625
0, 0, 69, 1984195.125
0, 0, 70, 1930855.375
0, 0, 71, 1874162.625
0, 0, 72, 1822225.125
0, 0, 73, 1772388
0, 0, 74, 1722147.875
0, 0, 75, 1675106.375
0, 0, 76, 1634360.25
0, 0, 77, 1591067.75
0, 0, 78, 1538759
0, 0, 79, 1494165.25
0, 0, 80, 1456390.125
0, 0, 81, 1409043.625
0, 0, 82, 1374583.75
0, 0, 83, 1335435.125
0, 0, 84, 1298777.25
0, 0, 85, 1266567.625
0, 0, 86, 1231207.25
0, 0, 87, 1195006
0, 0, 88, 1162025.25
0, 0, 89, 1126340.75
0, 0, 90, 1098571
0, 0, 91, 1066982.5
0, 0, 92, 1037838.0625
0, 0, 93, 1011873.0625
0, 0, 94, 983435.8125
0, 0, 95, 960287.3125
0, 0, 96, 931795.4375
0, 0, 97, 905694.6875
0, 0, 98, 882416.1875
0, 0, 99, 858425.0625
0, 0, 100, 835691
0, 0, 101, 813421.9375
0, 0, 102, 793747.625
0, 0, 103, 771184.1875
0, 0, 104, 747600
0, 0, 105, 734166.4375
0, 0, 106, 713816.5625
0, 0, 107, 691963.875
0, 0, 108, 677616.75
0, 0, 109, 661309.375
0, 0, 110, 643608.8125
0, 0, 111, 626263.375
0, 0, 112, 610390.9375
0, 0, 113, 592202.3125
0, 0, 114, 580326.3125
0, 0, 115, 564583.25
0, 0, 116, 547190.75
0, 0, 117, 534801.1875
0, 0, 118, 523240
0, 0, 119, 505746.8125
0, 0, 120, 496035.9375
0, 0, 121, 484136.375
0, 0, 122, 470367.28125
0, 0, 123, 457742.15625
0, 0, 124, 451637.21875
0, 0, 125, 439127.875
0, 0, 126, 428610.8125
0, 0, 127, 419551.15625
0, 0, 128, 408706.46875
0, 0, 129, 400468.53125
0, 0, 130, 391676.75
0, 0, 131, 380368.96875
0, 0, 132, 371808.78125
0, 0, 133, 366462.46875
0, 0, 134, 355563.25
0, 0, 135, 345527.78125
0, 0, 136, 339250.625
0, 0, 137, 331787.0625
0, 0, 138, 326415.875
0, 0, 139, 318925.9375
0, 0, 140, 311612.0625
0, 0, 141, 305988.625
0, 0, 142, 300602.40625
0, 0, 143, 293664.625
0, 0, 144, 286053.3125
0, 0, 145, 280178.3125
0, 0, 146, 276462.5
0, 0, 147, 269726.03125
0, 0, 148, 263597.28125
0, 0, 149, 258926.421875
0, 0, 150, 252736.734375
0, 0, 151, 247612.171875
0, 0, 152, 244435.234375
0, 0, 153, 239546.25
0, 0, 154, 234919.8125
0, 0, 155, 228926.5625
0, 0, 156, 223503.796875
0, 0, 157, 219185.9375
0, 0, 158, 216592.25
0, 0, 159, 211664.75
0, 0, 160, 206836.578125
0, 0, 161, 205429.5
0, 0, 162, 203345.5625
0, 0, 163, 200102.03125
0, 0, 164, 196055.125
0, 0, 165, 193006.375
0, 0, 166, 187980.578125
0, 0, 167, 185429.765625
0, 0, 168, 182123.9375
0, 0, 169, 179583.84375
0, 0, 170, 175997.671875
0, 0, 171, 172443.640625
0, 0, 172, 171263.0625
0, 0, 173, 167212.53125
0, 0, 174, 163904.75
0, 0, 175, 161933.765625
0, 0, 176, 159650.890625
0, 0, 177, 157560.3125
0, 0, 178, 152559.9375
0, 0, 179, 152468.140625
0, 0, 180, 150060.90625
0, 0, 181, 147564.75
0, 0, 182, 145869.859375
0, 0, 183, 142151.6875
0, 0, 184, 141017.5625
0, 0, 185, 137052.84375
0, 0, 186, 133870.015625
0, 0, 187, 132024.375
0, 0, 188, 130120.0234375
0, 0, 189, 127391.8828125
0, 0, 190, 125012.4609375
0, 0, 191, 123549.6953125
0, 0, 192, 122732.2421875
0, 0, 193, 119136.1796875
0, 0, 194, 118162.4140625
0, 0, 195, 116624.546875
0, 0, 196, 114757.1796875
0, 0, 197, 112522.6875
0, 0, 198, 111097.296875
0, 0, 199, 110872.9609375
0, 0, 200, 107375.9140625
0, 0, 201, 106202.2109375
0, 0, 202, 106642.578125
0, 0, 203, 104005.15625
0, 0, 204, 101143.546875
0, 0, 205, 99940.65625
0, 0, 206, 99156.90625
0, 0, 207, 97080.609375
0, 0, 208, 95534.4765625
0, 0, 209, 94282.6875
0, 0, 210, 92915.8046875
0, 0, 211, 90531.375
0, 0, 212, 89397.34375
0, 0, 213, 87891.65625
0, 0, 214, 87222.859375
0, 0, 215, 86136.046875
0, 0, 216, 84796.6953125
0, 0, 217, 82915.4765625
0, 0, 218, 82806.7734375
0, 0, 219, 82140.4296875
0, 0, 220, 82392.625
0, 0, 221, 80669.15625
0, 0, 222, 78862.765625
0, 0, 223, 77278.9765625
0, 0, 224, 76445.3125
0, 0, 225, 75555.984375
0, 0, 226, 74331.9296875
0, 0, 227, 73534.4296875
0, 0, 228, 71534.46875
0, 0, 229, 70024.9765625
0, 0, 230, 69045.2109375
0, 0, 231, 68930.21875
0, 0, 232, 67569.078125
0, 0, 233, 67149.453125
0, 0, 234, 64901.1875
0, 0, 235, 64258.109375
0, 0, 236, 64761.671875
0, 0, 237, 62305.609375
0, 0, 238, 60919.1796875
0, 0, 239, 60590.7421875
0, 0, 240, 61434.90234375
0, 0, 241, 58841.09375
0, 0, 242, 57817.1875
0, 0, 243, 56846.8125
0, 0, 244, 55202.14453125
0, 0, 245, 55611.43359375
0, 0, 246, 54510.984375
0, 0, 247, 54359.76953125
0, 0, 248, 54232.8671875
0, 0, 249, 54169.71875
0, 0, 250, 52771.26171875
0, 0, 251, 52485.33984375
0, 0, 252, 51202.77734375
0, 0, 253, 51044.2578125
0, 0, 254, 50055.328125
0, 0, 255, 50439.52734375
0, 0, 256, 49119.66796875
0, 0, 257, 48163.4140625
0, 0, 258, 47940.21875
0, 0, 259, 45925.828125
0, 0, 260, 46570.8828125
0, 0, 261, 45280.0625
0, 0, 262, 43541.02734375
0, 0, 263, 44502.40625
0, 0, 264, 43981.65625
0, 0, 265, 42886.33984375
0, 0, 266, 43893.15234375
0, 0, 267, 43261.2109375
0, 0, 268, 42558.390625
0, 0, 269, 41946.6796875
0, 0, 270, 41383.30078125
0, 0, 271, 40126.73828125
0, 0, 272, 40267.28515625
0, 0, 273, 39861.45703125
0, 0, 274, 39717.01953125
0, 0, 275, 39324.875
0, 0, 276, 38965.76171875
0, 0, 277, 37899.16015625
0, 0, 278, 37086.8515625
0, 0, 279, 36461.53125
0, 0, 280, 35873.2109375
0, 0, 281, 35580.88671875
0, 0, 282, 35074.01171875
0, 0, 283, 34656.21484375
0, 0, 284, 34320.69921875
0, 0, 285, 34495.3515625
0, 0, 286, 33868.73046875
0, 0, 287, 33394.66015625
0, 0, 288, 32627.48828125
0, 0, 289, 31954.87109375
0, 0, 290, 32263.716796875
0, 0, 291, 31564.35546875
0, 0, 292, 31699.71484375
0, 0, 293, 30718.671875
0, 0, 294, 31243.4375
0, 0, 295, 29748.828125
0, 0, 296, 29867.0703125
0, 0, 297, 29693.462890625
0, 0, 298, 29267.724609375
0, 0, 299, 28694.798828125
0, 0, 300, 28311.97265625
0, 0, 301, 28622.865234375
0, 0, 302, 27657.20703125
0, 0, 303, 26927.9140625
0, 0, 304, 27319.3125
0, 0, 305, 27256.107421875
0, 0, 306, 26481.275390625
0, 0, 307, 26220.333984375
0, 0, 308, 26222.111328125
0, 0, 309, 26009.404296875
0, 0, 310, 25901.5234375
0, 0, 311, 25708.462890625
0, 0, 312, 25001.759765625
0, 0, 313, 25127.509765625
0, 0, 314, 24290.298828125
0, 0, 315, 25163.4375
0, 0, 316, 24309.28125
0, 0, 317, 23847.662109375
0, 0, 318, 23028.064453125
0, 0, 319, 23315.630859375
0, 0, 320, 23150.09765625
0, 0, 321, 22644.029296875
0, 0, 322, 22488.94140625
0, 0, 323, 22179.23046875
0, 0, 324, 22420.708984375
0, 0, 325, 22279.240234375
0, 0, 326, 22164.77734375
0, 0, 327, 22218.57421875
0, 0, 328, 22741.068359375
0, 0, 329, 21962.390625
0, 0, 330, 22127.541015625
0, 0, 331, 20886.736328125
0, 0, 332, 20847.3125
0, 0, 333, 20773.25
0, 0, 334, 20804.78515625
0, 0, 335, 20356.482421875
0, 0, 336, 19962.02734375
0, 0, 337, 20421.974609375
0, 0, 338, 19626.81640625
0, 0, 339, 19586.525390625
0, 0, 340, 19161.630859375
0, 0, 341, 18314.712890625
0, 0, 342, 18926.720703125
0, 0, 343, 18591.720703125
0, 0, 344, 17812.841796875
0, 0, 345, 18042.09375
0, 0, 346, 17284.01171875
0, 0, 347, 17054.419921875
0, 0, 348, 16713.5625
0, 0, 349, 16072.6513671875
0, 0, 350, 16244.94140625
0, 0, 351, 16677.56640625
0, 0, 352, 15740.9111328125
0, 0, 353, 15812.583984375
0, 0, 354, 15430.61328125
0, 0, 355, 14723.2099609375
0, 0, 356, 14229.46875
0, 0, 357, 14352.3701171875
0, 0, 358, 14189.18359375
0, 0, 359, 14003.513671875
0, 0, 360, 14196.4384765625
0, 0, 361, 14612.1103515625
0, 0, 362, 13658.126953125
0, 0, 363, 13687.125
0, 0, 364, 13447.123046875
0, 0, 365, 13426.0859375
0, 0, 366, 13557.48828125
0, 0, 367, 13414.1298828125
0, 0, 368, 13001.82421875
0, 0, 369, 12782.2373046875
0, 0, 370, 12558.779296875
0, 0, 371, 12536.7197265625
0, 0, 372, 12848.978515625
0, 0, 373, 13259.7060546875
0, 0, 374, 12632.0390625
0, 0, 375, 12965.748046875
0, 0, 376, 12620.578125
0, 0, 377, 12814.359375
0, 0, 378, 13139.7783203125
0, 0, 379, 12749.1982421875
0, 0, 380, 12755.5048828125
0, 0, 381, 12669.1123046875
0, 0, 382, 12305.41015625
0, 0, 383, 12172.3857421875
0, 0, 384, 11912.37890625
0, 0, 385, 11983.0126953125
0, 0, 386, 12069.0400390625
0, 0, 387, 12289.0830078125
0, 0, 388, 11773.810546875
0, 0, 389, 11592.6064453125
0, 0, 390, 11471.5634765625
0, 0, 391, 11291.595703125
0, 0, 392, 11340.345703125
0, 0, 393, 11343.6875
0, 0, 394, 11156.1240234375
0, 0, 395, 11523.794921875
0, 0, 396, 11186.5263671875
0, 0, 397, 10608.4619140625
0, 0, 398, 10364.716796875
0, 0, 399, 10283.1162109375
0, 0, 400, 10649.5791015625
0, 0, 401, 10381.4404296875
0, 0, 402, 10285.4091796875
0, 0, 403, 10005.90234375
0, 0, 404, 10455.306640625
0, 0, 405, 10325.19140625
0, 0, 406, 10323.51953125
0, 0, 407, 10235.1513671875
0, 0, 408, 10225.5166015625
0, 0, 409, 10121.0693359375
0, 0, 410, 10192.447265625
0, 0, 411, 9907.74609375
0, 0, 412, 9986.7119140625
0, 0, 413, 10143.4775390625
0, 0, 414, 10125.185546875
0, 0, 415, 9346.037109375
0, 0, 416, 9205.11328125
0, 0, 417, 9280.4306640625
0, 0, 418, 9230.33203125
0, 0, 419, 9038.8515625
0, 0, 420, 8870.9482421875
0, 0, 421, 8438.5712890625
0, 0, 422, 8376.3095703125
0, 0, 423, 8169.5751953125
0, 0, 424, 8902.369140625
0, 0, 425, 8463.51953125
0, 0, 426, 8583.111328125
0, 0, 427, 8016.96923828125
0, 0, 428, 7890.96533203125
0, 0, 429, 7894.4794921875
0, 0, 430, 7648.36669921875
0, 0, 431, 7819.93505859375
0, 0, 432, 7696.72021484375
0, 0, 433, 8227.259765625
0, 0, 434, 8129.9052734375
0, 0, 435, 8271.5146484375
0, 0, 436, 8152.97314453125
0, 0, 437, 8063.01416015625
0, 0, 438, 8347.626953125
0, 0, 439, 8104.3037109375
0, 0, 440, 7910.2041015625
0, 0, 441, 7729.021484375
0, 0, 442, 7653.7861328125
0, 0, 443, 7233.296875
0, 0, 444, 7553.87060546875
0, 0, 445, 7919.8427734375
0, 0, 446, 7685.701171875
0, 0, 447, 7912.4716796875
0, 0, 448, 7434.4365234375
0, 0, 449, 7987.52392578125
0, 0, 450, 8002.896484375
0, 0, 451, 7911.3427734375
0, 0, 452, 7684.5185546875
0, 0, 453, 7097.5927734375
0, 0, 454, 7216.37451171875
0, 0, 455, 7477.25341796875
0, 0, 456, 7520.60595703125
0, 0, 457, 7220.0703125
0, 0, 458, 7410.4619140625
0, 0, 459, 7358.82177734375
0, 0, 460, 7172.9833984375
0, 0, 461, 6933.81787109375
0, 0, 462, 6760.2841796875
0, 0, 463, 7141.42431640625
0, 0, 464, 6866.6162109375
0, 0, 465, 6937.30712890625
0, 0, 466, 7039.52294921875
0, 0, 467, 6768.08154296875
0, 0, 468, 6921.10107421875
0, 0, 469, 6795.70751953125
0, 0, 470, 6641.60986328125
0, 0, 471, 6727.7177734375
0, 0, 472, 6656.34765625
0, 0, 473, 7079.82421875
0, 0, 474, 6407.38525390625
0, 0, 475, 6665.32177734375
0, 0, 476, 7056.90966796875
0, 0, 477, 6833.56201171875
0, 0, 478, 6254.64013671875
0, 0, 479, 6753.58349609375
0, 0, 480, 6223.98828125
0, 0, 481, 6412.794921875
0, 0, 482, 6244.43798828125
0, 0, 483, 6307.08056640625
0, 0, 484, 5726.712890625
0, 0, 485, 5852.84423828125
0, 0, 486, 6058.849609375
0, 0, 487, 5984.87255859375
0, 0, 488, 5934.89208984375
0, 0, 489, 5782.74658203125
0, 0, 490, 6277.96923828125
0, 0, 491, 5876.04296875
0, 0, 492, 5573.30224609375
0, 0, 493, 5618.54052734375
0, 0, 494, 5883.677734375
0, 0, 495, 5826.7138671875
0, 0, 496, 5699.4296875
0, 0, 497, 5478.72509765625
0, 0, 498, 5873.64306640625
0, 0, 499, 5382.62939453125
0, 0, 500, 5344.72607421875
0, 0, 501, 5327.63916015625
0, 0, 502, 5301.8896484375
0, 0, 503, 5050.8115234375
0, 0, 504, 5256.33056640625
0, 0, 505, 4883.21142578125
0, 0, 506, 4959.81396484375
0, 0, 507, 4922.43408203125
0, 0, 508, 4859.29345703125
0, 0, 509, 5001.345703125
0, 0, 510, 4764.85546875
0, 0, 511, 4999.83935546875
0, 0, 512, 5114.3876953125
0, 0, 513, 4358.455078125
0, 0, 514, 4541.99853515625
0, 0, 515, 4629.60791015625
0, 0, 516, 4637.919921875
0, 0, 517, 4940.658203125
0, 0, 518, 4798.33349609375
0, 0, 519, 5058.72509765625
0, 0, 520, 4769.5439453125
0, 0, 521, 5049.5791015625
0, 0, 522, 5139.5146484375
0, 0, 523, 5315.72119140625
0, 0, 524, 5293.96826171875
0, 0, 525, 5415.8798828125
0, 0, 526, 5406.5009765625
0, 0, 527, 5228.89111328125
0, 0, 528, 5091.57958984375
0, 0, 529, 5087.54296875
0, 0, 530, 4851.1181640625
0, 0, 531, 5264.1220703125
0, 0, 532, 4758.2705078125
0, 0, 533, 4916.54345703125
0, 0, 534, 4766.337890625
0, 0, 535, 4634.7216796875
0, 0, 536, 4443.1513671875
0, 0, 537, 4427.37890625
0, 0, 538, 4316.32958984375
0, 0, 539, 4195.18896484375
0, 0, 540, 4063.683837890625
0, 0, 541, 3810.38134765625
0, 0, 542, 3675.802734375
0, 0, 543, 3637.752685546875
0, 0, 544, 3653.75146484375
0, 0, 545, 3542.968505859375
0, 0, 546, 3338.73095703125
0, 0, 547, 3619.132080078125
0, 0, 548, 3499.1650390625
0, 0, 549, 3362.029052734375
0, 0, 550, 3227.1923828125
0, 0, 551, 3475.080322265625
0, 0, 552, 3347.986328125
0, 0, 553, 3624.427978515625
0, 0, 554, 3377.33154296875
0, 0, 555, 3370.80224609375
0, 0, 556, 3488.78564453125
0, 0, 557, 3376.6328125
0, 0, 558, 3554.433837890625
0, 0, 559, 3792.833251953125
0, 0, 560, 3491.2626953125
0, 0, 561, 3686.79541015625
0, 0, 562, 3416.72412109375
0, 0, 563, 3584.277099609375
0, 0, 564, 3461.763427734375
0, 0, 565, 3089.9599609375
0, 0, 566, 3057.10498046875
0, 0, 567, 3134.942626953125
0, 0, 568, 2850.11767578125
0, 0, 569, 3026.11328125
0, 0, 570, 2851.49072265625
0, 0, 571, 3116.458740234375
0, 0, 572, 3091.37744140625
0, 0, 573, 3020.0166015625
0, 0, 574, 2828.555908203125
0, 0, 575, 2809.06494140625
0, 0, 576, 2719.892822265625
0, 0, 577, 2880.184326171875
0, 0, 578, 2910.043212890625
0, 0, 579, 2949.81396484375
0, 0, 580, 2968.78515625
0, 0, 581, 3030.161865234375
0, 0, 582, 2954.973876953125
0, 0, 583, 3021.63720703125
0, 0, 584, 2981.702880859375
0, 0, 585, 2905.01611328125
0, 0, 586, 3137.340087890625
0, 0, 587, 3288.239501953125
0, 0, 588, 2981.971435546875
0, 0, 589, 3324.169921875
0, 0, 590, 3354.5224609375
0, 0, 591, 3316.968017578125
0, 0, 592, 3377.359130859375
0, 0, 593, 3563.634521484375
0, 0, 594, 3455.37744140625
0, 0, 595, 3355.44970703125
0, 0, 596, 3078.676513671875
0, 0, 597, 3103.866455078125
0, 0, 598, 3186.275146484375
0, 0, 599, 3183.134765625
0, 0, 600, 3083.4638671875
0, 0, 601, 3220.357177734375
0, 0, 602, 3106.25390625
0, 0, 603, 3184.78515625
0, 0, 604, 3255.191162109375
0, 0, 605, 3252.1630859375
0, 0, 606, 2896.9638671875
0, 0, 607, 3030.2216796875
0, 0, 608, 3027.947021484375
0, 0, 609, 2651.837890625
0, 0, 610, 2643.059814453125
0, 0, 611, 2691.0244140625
0, 0, 612, 2597.9970703125
0, 0, 613, 2589.823974609375
0, 0, 614, 2457.51220703125
0, 0, 615, 2334.712890625
0, 0, 616, 2337.21337890625
0, 0, 617, 2288.5458984375
0, 0, 618, 2193.848876953125
0, 0, 619, 2056.246337890625
0, 0, 620, 2171.916259765625
0, 0, 621, 2251.90966796875
0, 0, 622, 2281.616943359375
0, 0, 623, 2207.386962890625
0, 0, 624, 2420.073486328125
0, 0, 625, 2420.091064453125
0, 0, 626, 2658.36865234375
0, 0, 627, 2410.827880859375
0, 0, 628, 2487.8837890625
0, 0, 629, 2319.7353515625
0, 0, 630, 2259.54833984375
0, 0, 631, 2239.15380859375
0, 0, 632, 2214.308837890625
0, 0, 633, 2321.397705078125
0, 0, 634, 2170.352783203125
0, 0, 635, 2280.942626953125
0, 0, 636, 2127.093994140625
0, 0, 637, 2293.88671875
0, 0, 638, 2076.517822265625
0, 0, 639, 1983.822265625
0, 0, 640, 2215.234619140625
0, 0, 641, 1907.29443359375
0, 0, 642, 1979.625854492188
0, 0, 643, 1905.8125
0, 0, 644, 1709.036010742188
0, 0, 645, 1614.179565429688
0, 0, 646, 1774.755126953125
0, 0, 647, 1735.0302734375
0, 0, 648, 1879.697509765625
0, 0, 649, 1844.772094726562
0, 0, 650, 1808.756713867188
0, 0, 651, 1720.757568359375
0, 0, 652, 1560.113037109375
0, 0, 653, 1618.155517578125
0, 0, 654, 1735.423461914062
0, 0, 655, 1762.503540039062
0, 0, 656, 1574.804809570312
0, 0, 657, 1490.7568359375
0, 0, 658, 1435.259399414062
0, 0, 659, 1603.805053710938
0, 0, 660, 1671.968383789062
0, 0, 661, 1566.74853515625
0, 0, 662, 1695.079833984375
0, 0, 663, 1763.237182617188
0, 0, 664, 1646.953247070312
0, 0, 665, 1587.060424804688
0, 0, 666, 1491.158935546875
0, 0, 667, 1467.618286132812
0, 0, 668, 1423.903564453125
0, 0, 669, 1352.735107421875
0, 0, 670, 1390.41162109375
0, 0, 671, 1321.676025390625
0, 0, 672, 1379.150634765625
0, 0, 673, 1428.619506835938
0, 0, 674, 1436.935302734375
0, 0, 675, 1482.192260742188
0, 0, 676, 1498.602905273438
0, 0, 677, 1501.775024414062
0, 0, 678, 1311.507446289062
0, 0, 679, 1298.04248046875
0, 0, 680, 1358.29150390625
0, 0, 681, 1390.137451171875
0, 0, 682, 1374.173950195312
0, 0, 683, 1407.838500976562
0, 0, 684, 1373.048828125
0, 0, 685, 1423.631103515625
0, 0, 686, 1455.345336914062
0, 0, 687, 1415.554443359375
0, 0, 688, 1418.603881835938
0, 0, 689, 1528.499633789062
0, 0, 690, 1478.839477539062
0, 0, 691, 1372.174926757812
0, 0, 692, 1345.369262695312
0, 0, 693, 1484.188842773438
0, 0, 694, 1517.79345703125
0, 0, 695, 1437.051879882812
0, 0, 696, 1513.657104492188
0, 0, 697, 1612.34814453125
0, 0, 698, 1557.826538085938
0, 0, 699, 1591.271850585938
0, 0, 700, 1526.12255859375
0, 0, 701, 1524.935546875
0, 0, 702, 1596.813354492188
0, 0, 703, 1584.252197265625
0, 0, 704, 1568.600463867188
0, 0, 705, 1315.220581054688
0, 0, 706, 1254.308959960938
0, 0, 707, 1211.00732421875
0, 0, 708, 1208.11767578125
0, 0, 709, 1045.050048828125
0, 0, 710, 906.6268920898438
0, 0, 711, 967.7901000976562
0, 0, 712, 966.4224243164062
0, 0, 713, 912.1946411132812
0, 0, 714, 853.8781127929688
0, 0, 715, 820.85595703125
0, 0, 716, 754.9983520507812
0, 0, 717, 663.4640502929688
0, 0, 718, 580.2293090820312
0, 0, 719, 508.7684326171875
0, 0, 720, 493.7263793945312
0, 0, 721, 484.5223388671875
0, 0, 722, 482.764404296875
0, 0, 723, 469.393798828125
0, 0, 724, 408.1794738769531
0, 0, 725, 446.8242492675781
0, 0, 726, 465.0902099609375
0, 0, 727, 479.8234558105469
0, 0, 728, 376.8891906738281
0, 0, 729, 406.3223571777344
0, 0, 730, 378.4157409667969
0, 0, 731, 275.5810241699219
0, 0, 732, 230.2505493164062
0, 0, 733, 220.9968414306641
0, 0, 734, 184.7072906494141
0, 0, 735, 173.3639831542969
0, 0, 736, 56.57255554199219
0, 0, 737, 31.92066764831543
0, 0, 738, 32.01846694946289
0, 0, 739, 31.97170639038086
0, 0, 740, 32.71072387695312
0, 0, 741, 76.41637420654297
0, 0, 742, 67.68849182128906
0, 0, 743, 84.10028076171875
0, 0, 744, 25.20506477355957
0, 0, 745, 0
0, 0, 746, 0
0, 0, 747, 0
0, 0, 748, 0
0, 0, 749, 0
0, 0, 750, 0
0, 0, 751, 0
0, 0, 752, 0
0, 0, 753, 0
0, 0, 754, 21.0931224822998
0, 0, 755, 34.34568786621094
0, 0, 756, 34.01436614990234
0, 0, 757, 0
0, 0, 758, 0
0, 0, 759, 0
0, 0, 760, 0
0, 0, 761, 0
0, 0, 762, 0
0, 0, 763, 0
0, 0, 764, 0
0, 0, 765, 0
0, 0, 766, 0
0, 0, 767, 0
0, 0, 768, 0
0, 0, 769, 0
0, 0, 770, 0
0, 0, 771, 0
0, 0, 772, 0
0, 0, 773, 0
0, 0, 774, 0
0, 0, 775, 0
0, 0, 776, 0
0, 0, 777, 0
0, 0, 778, 0
0, 0, 779, 0
0, 0, 780, 0
0, 0, 781, 0
0, 0, 782, 0
0, 0, 783, 0
0, 0, 784, 0
0, 0, 785, 0
0, 0, 786, 0
0, 0, 787, 0
0, 0, 788, 0
0, 0, 789, 0
0, 0, 790, 0
0, 0, 791, 0
0, 0, 792, 0
0, 0, 793, 0
0, 0, 794, 0
0, 0, 795, 0
0, 0, 796, 0
0, 0, 797, 0
0, 0, 798, 0
0, 0, 799, 0
0, 0, 800, 0
0, 0, 801, 0
0, 0, 802, 0
0, 0, 803, 0
0, 0, 804, 0
0, 0, 805, 0
0, 0, 806, 0
0, 0, 807, 0
0, 0, 808, 0
0, 0, 809, 0
0, 0, 810, 0
0, 0, 811, 0
0, 0, 812, 0
0, 0, 813, 0
0, 0, 814, 0
0, 0, 815, 0
0, 0, 816, 0
0, 0, 817, 0
0, 0, 818, 0
0, 0, 819, 0
0, 0, 820, 0
0, 0, 821, 0
0, 0, 822, 0
0, 0, 823, 0
0, 0, 824, 0
0, 0, 825, 0
0, 0, 826, 0
0, 0, 827, 0
0, 0, 828, 0
0, 0, 829, 0
0, 0, 830, 0
0, 0, 831, 0
0, 0, 832, 0
0, 0, 833, 0
0, 0, 834, 0
0, 0, 835, 0
0, 0, 836, 0
0, 0, 837, 0
0, 0, 838, 0
0, 0, 839, 0
0, 0, 840, 0
0, 0, 841, 0
0, 0, 842, 0
0, 0, 843, 0
0, 0, 844, 0
0, 0, 845, 0
0, 0, 846, 0
0, 0, 847, 0
0, 0, 848, 0
0, 0, 849, 0
0, 0, 850, 0
0, 0, 851, 0
0, 0, 852, 0
0, 0, 853, 0
0, 0, 854, 0
0, 0, 855, 0
0, 0, 856, 0
0, 0, 857, 0
0, 0, 858, 0
0, 0, 859, 0
0, 0, 860, 0
0, 0, 861, 0
0, 0, 862, 0
0, 0, 863, 0
0, 0, 864, 0
0, 0, 865, 0
0, 0, 866, 0
0, 0, 867, 0
0, 0, 868, 0
0, 0, 869, 0
0, 0, 870, 0
0, 0, 871, 0
0, 0, 872, 0
0, 0, 873, 0
0, 0, 874, 0
0, 0, 875, 0
0, 0, 876, 0
0, 0, 877, 0
0, 0, 878, 0
0, 0, 879, 0
0, 0, 880, 0
0, 0, 881, 0
0, 0, 882, 0
0, 0, 883, 0
0, 0, 884, 0
0, 0, 885, 0
0, 0, 886, 0
0, 0, 887, 0
0, 0, 888, 0
0, 0, 889, 0
0, 0, 890, 0
0, 0, 891, 0
0, 0, 892, 0
0, 0, 893, 0
0, 0, 894, 0
0, 0, 895, 0
0, 0, 896, 0
0, 0, 897, 0
0, 0, 898, 0
0, 0, 899, 0
0, 0, 900, 0
0, 0, 901, 0
0, 0, 902, 0
0, 0, 903, 0
0, 0, 904, 0
0, 0, 905, 0
0, 0, 906, 0
0, 0, 907, 0
0, 0, 908, 0
0, 0, 909, 0
0, 0, 910, 0
0, 0, 911, 0
0, 0, 912, 0
0, 0, 913, 0
0, 0, 914, 0
0, 0, 915, 0
0, 0, 916, 0
0, 0, 917, 0
0, 0, 918, 0
0, 0, 919, 0
0, 0, 920, 0
0, 0, 921, 0
0, 0, 922, 0
0, 0, 923, 0
0, 0, 924, 0
0, 0, 925, 0
0, 0, 926, 0
0, 0, 927, 0
0, 0, 928, 0
0, 0, 929, 0
0, 0, 930, 0
0, 0, 931, 0
0, 0, 932, 0
0, 0, 933, 0
0, 0, 934, 0
0, 0, 935, 0
0, 0, 936, 0
0, 0, 937, 0
0, 0, 938, 0
0, 0, 939, 0
0, 0, 940, 0
0, 0, 941, 0
0, 0, 942, 0
0, 0, 943, 0
0, 0, 944, 0
0, 0, 945, 0
0, 0, 946, 0
0, 0, 947, 0
0, 0, 948, 0
0, 0, 949, 0
0, 0, 950, 0
0, 0, 951, 0
0, 0, 952, 0
0, 0, 953, 0
0, 0, 954, 0
0, 0, 955, 0
0, 0, 956, 0
0, 0, 957, 0
0, 0, 958, 0
0, 0, 959, 0
0, 0, 960, 0
0, 0, 961, 0
0, 0, 962, 0
0, 0, 963, 0
0, 0, 964, 0
0, 0, 965, 0
0, 0, 966, 0
0, 0, 967, 0
0, 0, 968, 0
0, 0, 969, 0
0, 0, 970, 0
0, 0, 971, 0
0, 0, 972, 0
0, 0, 973, 0
0, 0, 974, 0
0, 0, 975, 0
0, 0, 976, 0
0, 0, 977, 0
0, 0, 978, 0
0, 0, 979, 0
0, 0, 980, 0
0, 0, 981, 0
0, 0, 982, 0
0, 0, 983, 0
0, 0, 984, 0
0, 0, 985, 0
0, 0, 986, 0
0, 0, 987, 0
0, 0, 988, 0
0, 0, 989, 0
0, 0, 990, 0
0, 0, 991, 0
0, 0, 992, 0
0, 0, 993, 0
0, 0, 994, 0
0, 0, 995, 0
0, 0, 996, 0
0, 0, 997, 0
0, 0, 998, 0
0, 0, 999, 0
0, 0, 1000, 0
0, 0, 1001, 0
0, 0, 1002, 0
0, 0, 1003, 0
0, 0, 1004, 0
0, 0, 1005, 0
0, 0, 1006, 0
0, 0, 1007, 0
0, 0, 1008, 0
0, 0, 1009, 0
0, 0, 1010, 0
0, 0, 1011, 0
0, 0, 1012, 0
0, 0, 1013, 0
0, 0, 1014, 0
0, 0, 1015, 0
0, 0, 1016, 0
0, 0, 1017, 0
0, 0, 1018, 0
0, 0, 1019, 0
0, 0, 1020, 0
0, 0, 1021, 0
0, 0, 1022, 0
0, 0, 1023, 0
0, 0, 1024, 0
0, 0, 1025, 0
0, 0, 1026, 0
0, 0, 1027, 0
0, 0, 1028, 0
0, 0, 1029, 0
0, 0, 1030, 0
0, 0, 1031, 0
0, 0, 1032, 0
0, 0, 1033, 0
0, 0, 1034, 0
0, 0, 1035, 0
0, 0, 1036, 0
0, 0, 1037, 0
0, 0, 1038, 0
0, 0, 1039, 0
0, 0, 1040, 0
0, 0, 1041, 0
0, 0, 1042, 0
0, 0, 1043, 0
0, 0, 1044, 0
0, 0, 1045, 0
0, 0, 1046, 0
0, 0, 1047, 0
0, 0, 1048, 0
0, 0, 1049, 0
0, 0, 1050, 0
0, 0, 1051, 0
0, 0, 1052, 0
0, 0, 1053, 0
0, 0, 1054, 0
0, 0, 1055, 0
0, 0, 1056, 0
0, 0, 1057, 0
0, 0, 1058, 0
0, 0, 1059, 0
0, 0, 1060, 0
0, 0, 1061, 0
0, 0, 1062, 0
0, 0, 1063, 0
0, 0, 1064, 0
0, 0, 1065, 0
0, 0, 1066, 0
0, 0, 1067, 0
0, 0, 1068, 0
0, 0, 1069, 0
0, 0, 1070, 0
0, 0, 1071, 0
0, 0, 1072, 0
0, 0, 1073, 0
0, 0, 1074, 0
0, 0, 1075, 0
0, 0, 1076, 0
0, 0, 1077, 0
0, 0, 1078, 0
0, 0, 1079, 0
0, 0, 1080, 0
0, 0, 1081, 0
0, 0, 1082, 0
0, 0, 1083, 0
0, 0, 1084, 0
0, 0, 1085, 0
0, 0, 1086, 0
0, 0, 1087, 0
0, 0, 1088, 0
0, 0, 1089, 0
0, 0, 1090, 0
0, 0, 1091, 0
0, 0, 1092, 0
0, 0, 1093, 0
0, 0, 1094, 0
0, 0, 1095, 0
0, 0, 1096, 0
0, 0, 1097, 0
0, 0, 1098, 0
0, 0, 1099, 0
0, 0, 1100, 0
0, 0, 1101, 0
0, 0, 1102, 0
0, 0, 1103, 0
0, 0, 1104, 0
0, 0, 1105, 0
0, 0, 1106, 0
0, 0, 1107, 0
0, 0, 1108, 0
0, 0, 1109, 0
0, 0, 1110, 0
0, 0, 1111, 0
0, 0, 1112, 0
0, 0, 1113, 0
0, 0, 1114, 0
0, 0, 1115, 0
0, 0, 1116, 0
0, 0, 1117, 0
0, 0, 1118, 0
0, 0, 1119, 0
0, 0, 1120, 0
0, 0, 1121, 0
0, 0, 1122, 0
0, 0, 1123, 0
0, 0, 1124, 0
0, 0, 1125, 0
0, 0, 1126, 0
0, 0, 1127, 0
0, 0, 1128, 0
0, 0, 1129, 0
0, 0, 1130, 0
0, 0, 1131, 0
0, 0, 1132, 0
0, 0, 1133, 0
0, 0, 1134, 0
0, 0, 1135, 0
0, 0, 1136, 0
0, 0, 1137, 0
0, 0, 1138, 0
0, 0, 1139, 0
0, 0, 1140, 0
0, 0, 1141, 0
0, 0, 1142, 0
0, 0, 1143, 0
0, 0, 1144, 0
0, 0, 1145, 0
0, 0, 1146, 0
0, 0, 1147, 0
0, 0, 1148, 0
0, 0, 1149, 0
0, 0, 1150, 0
0, 0, 1151, 0
0, 0, 1152, 0
0, 0, 1153, 0
0, 0, 1154, 0
0, 0, 1155, 0
0, 0, 1156, 0
0, 0, 1157, 0
0, 0, 1158, 0
0, 0, 1159, 0
0, 0, 1160, 0
0, 0, 1161, 0
0, 0, 1162, 0
0, 0, 1163, 0
0, 0, 1164, 0
0, 0, 1165, 0
0, 0, 1166, 0
0, 0, 1167, 0
0, 0, 1168, 0
0, 0, 1169, 0
0, 0, 1170, 0
0, 0, 1171, 0
0, 0, 1172, 0
0, 0, 1173, 0
0, 0, 1174, 0
0, 0, 1175, 0
0, 0, 1176, 0
0, 0, 1177, 0
0, 0, 1178, 0
0, 0, 1179, 0
0, 0, 1180, 0
0, 0, 1181, 0
0, 0, 1182, 0
0, 0, 1183, 0
0, 0, 1184, 0
0, 0, 1185, 0
0, 0, 1186, 0
0, 0, 1187, 0
0, 0, 1188, 0
0, 0, 1189, 0
0, 0, 1190, 0
0, 0, 1191, 0
0, 0, 1192, 0
0, 0, 1193, 0
0, 0, 1194, 0
0, 0, 1195, 0
0, 0, 1196, 0
0, 0, 1197, 0
0, 0, 1198, 0
0, 0, 1199, 0
0, 0, 1200, 0
0, 0, 1201, 0
0, 0, 1202, 0
0, 0, 1203, 0
0, 0, 1204, 0
0, 0, 1205, 0
0, 0, 1206, 0
0, 0, 1207, 0
0, 0, 1208, 0
0, 0, 1209, 0
0, 0, 1210, 0
0, 0, 1211, 0
0, 0, 1212, 0
0, 0, 1213, 0
0, 0, 1214, 0
0, 0, 1215, 0
0, 0, 1216, 0
0, 0, 1217, 0
0, 0, 1218, 0
0, 0, 1219, 0
0, 0, 1220, 0
0, 0, 1221, 0
0, 0, 1222, 0
0, 0, 1223, 0
0, 0, 1224, 0
0, 0, 1225, 0
0, 0, 1226, 0
0, 0, 1227, 0
0, 0, 1228, 0
0, 0, 1229, 0
0, 0, 1230, 0
0, 0, 1231, 0
0, 0, 1232, 0
0, 0, 1233, 0
0, 0, 1234, 0
0, 0, 1235, 0
0, 0, 1236, 0
0, 0, 1237, 0
0, 0, 1238, 0
0, 0, 1239, 0
0, 0, 1240, 0
0, 0, 1241, 0
0, 0, 1242, 0
0, 0, 1243, 0
0, 0, 1244, 0
0, 0, 1245, 0
0, 0, 1246, 0
0, 0, 1247, 0
0, 0, 1248, 0
0, 0, 1249, 0
0, 0, 1250, 0
0, 0, 1251, 0
0, 0, 1252, 0
0, 0, 1253, 0
0, 0, 1254, 0
0, 0, 1255, 0
0, 0, 1256, 0
0, 0, 1257, 0
0, 0, 1258, 0
0, 0, 1259, 0
0, 0, 1260, 0
0, 0, 1261, 0
0, 0, 1262, 0
0, 0, 1263, 0
0, 0, 1264, 0
0, 0, 1265, 0
0, 0, 1266, 0
0, 0, 1267, 0
0, 0, 1268, 0
0, 0, 1269, 0
0, 0, 1270, 0
0, 0, 1271, 0
0, 0, 1272, 0
0, 0, 1273, 0
0, 0, 1274, 0
0, 0, 1275, 0
0, 0, 1276, 0
0, 0, 1277, 0
0, 0, 1278, 0
0, 0, 1279, 0
0, 0, 1280, 0
0, 0, 1281, 0
0, 0, 1282, 0
0, 0, 1283, 0
0, 0, 1284, 0
0, 0, 1285, 0
0, 0, 1286, 0
0, 0, 1287, 0
0, 0, 1288, 0
0, 0, 1289, 0
0, 0, 1290, 0
0, 0, 1291, 0
0, 0, 1292, 0
0, 0, 1293, 0
0, 0, 1294, 0
0, 0, 1295, 0
0, 0, 1296, 0
0, 0, 1297, 0
0, 0, 1298, 0
0, 0, 1299, 0
0, 0, 1300, 0
0, 0, 1301, 0
0, 0, 1302, 0
0, 0, 1303, 0
0, 0, 1304, 0
0, 0, 1305, 0
0, 0, 1306, 0
0, 0, 1307, 0
0, 0, 1308, 0
0, 0, 1309, 0
0, 0, 1310, 0
0, 0, 1311, 0
0, 0, 1312, 0
0, 0, 1313, 0
0, 0, 1314, 0
0, 0, 1315, 0
0, 0, 1316, 0
0, 0, 1317, 0
0, 0, 1318, 0
0, 0, 1319, 0
0, 0, 1320, 0
0, 0, 1321, 0
0, 0, 1322, 0
0, 0, 1323, 0
0, 0, 1324, 0
0, 0, 1325, 0
0, 0, 1326, 0
0, 0, 1327, 0
0, 0, 1328, 0
0, 0, 1329, 0
0, 0, 1330, 0
0, 0, 1331, 0
0, 0, 1332, 0
0, 0, 1333, 0
0, 0, 1334, 0
0, 0, 1335, 0
0, 0, 1336, 0
0, 0, 1337, 0
0, 0, 1338, 0
0, 0, 1339, 0
0, 0, 1340, 0
0, 0, 1341, 0
0, 0, 1342, 0
0, 0, 1343, 0
0, 0, 1344, 0
0, 0, 1345, 0
0, 0, 1346, 0
0, 0, 1347, 0
0, 0, 1348, 0
0, 0, 1349, 0
0, 0, 1350, 0
0, 0, 1351, 0
0, 0, 1352, 0
0, 0, 1353, 0
0, 0, 1354, 0
0, 0, 1355, 0
0, 0, 1356, 0
0, 0, 1357, 0
0, 0, 1358, 0
0, 0, 1359, 0
0, 0, 1360, 0
0, 0, 1361, 0
0, 0, 1362, 0
0, 0, 1363, 0
0, 0, 1364, 0
0, 0, 1365, 0
0, 0, 1366, 0
0, 0, 1367, 0
0, 0, 1368, 0
0, 0, 1369, 0
0, 0, 1370, 0
0, 0, 1371, 0
0, 0, 1372, 0
0, 0, 1373, 0
0, 0, 1374, 0
0, 0, 1375, 0
0, 0, 1376, 0
0, 0, 1377, 0
0, 0, 1378, 0
0, 0, 1379, 0
0, 0, 1380, 0
0, 0, 1381, 0
0, 0, 1382, 0
0, 0, 1383, 0
0, 0, 1384, 0
0, 0, 1385, 0
0, 0, 1386, 0
0, 0, 1387, 0
0, 0, 1388, 0
0, 0, 1389, 0
0, 0, 1390, 0
0, 0, 1391, 0
0, 0, 1392, 0
0, 0, 1393, 0
0, 0, 1394, 0
0, 0, 1395, 0
0, 0, 1396, 0
0, 0, 1397, 0
0, 0, 1398, 0
0, 0, 1399, 0
0, 0, 1400, 0
0, 0, 1401, 0
0, 0, 1402, 0
0, 0, 1403, 0
0, 0, 1404, 0
0, 0, 1405, 0
0, 0, 1406, 0
0, 0, 1407, 0
0, 0, 1408, 0
0, 0, 1409, 0
0, 0, 1410, 0
0, 0, 1411, 0
0, 0, 1412, 0
0, 0, 1413, 0
0, 0, 1414, 0
0, 0, 1415, 0
0, 0, 1416, 0
0, 0, 1417, 0
0, 0, 1418, 0
0, 0, 1419, 0
0, 0, 1420, 0
0, 0, 1421, 0
0, 0, 1422, 0
0, 0, 1423, 0
0, 0, 1424, 0
0, 0, 1425, 0
0, 0, 1426, 0
0, 0, 1427, 0
0, 0, 1428, 0
0, 0, 1429, 0
0, 0, 1430, 0
0, 0, 1431, 0
0, 0, 1432, 0
0, 0, 1433, 0
0, 0, 1434, 0
0, 0, 1435, 0
0, 0, 1436, 0
0, 0, 1437, 0
0, 0, 1438, 0
0, 0, 1439, 0
0, 0, 1440, 0
0, 0, 1441, 0
0, 0, 1442, 0
0, 0, 1443, 0
0, 0, 1444, 0
0, 0, 1445, 0
0, 0, 1446, 0
0, 0, 1447, 0
0, 0, 1448, 0
0, 0, 1449, 0
0, 0, 1450, 0
0, 0, 1451, 0
0, 0, 1452, 0
0, 0, 1453, 0
0, 0, 1454, 0
0, 0, 1455, 0
0, 0, 1456, 0
0, 0, 1457, 0
0, 0, 1458, 0
0, 0, 1459, 0
0, 0, 1460, 0
0, 0, 1461, 0
0, 0, 1462, 0
0, 0, 1463, 0
0, 0, 1464, 0
0, 0, 1465, 0
0, 0, 1466, 0
0, 0, 1467, 0
0, 0, 1468, 0
0, 0, 1469, 0
0, 0, 1470, 0
0, 0, 1471, 0
0, 0, 1472, 0
0, 0, 1473, 0
0, 0, 1474, 0
0, 0, 1475, 0
0, 0, 1476, 0
0, 0, 1477, 0
0, 0, 1478, 0
0, 0, 1479, 0
0, 0, 1480, 0
0, 0, 1481, 0
0, 0, 1482, 0
0, 0, 1483, 0
0, 0, 1484, 0
0, 0, 1485, 0
0, 0, 1486, 0
0, 0, 1487, 0
0, 0, 1488, 0
0, 0, 1489, 0
0, 0, 1490, 0
0, 0, 1491, 0
0, 0, 1492, 0
0, 0, 1493, 0
0, 0, 1494, 0
0, 0, 1495, 0
0, 0, 1496, 0
0, 0, 1497, 0
0, 0, 1498, 0
0, 0, 1499, 0
0, 0, 1500, 0
0, 0, 1501, 0
0, 0, 1502, 0
0, 0, 1503, 0
0, 0, 1504, 0
0, 0, 1505, 0
0, 0, 1506, 0
0, 0, 1507, 0
0, 0, 1508, 0
0, 0, 1509, 0
0, 0, 1510, 0
0, 0, 1511, 0
0, 0, 1512, 0
0, 0, 1513, 0
0, 0, 1514, 0
0, 0, 1515, 0
0, 0, 1516, 0
0, 0, 1517, 0
0, 0, 1518, 0
0, 0, 1519, 0
0, 0, 1520, 0
0, 0, 1521, 0
0, 0, 1522, 0
0, 0, 1523, 0
