# TOPAS Version: 3.1.p3
# Parameter File: Dose.txt
# Results for scorer DoseAtWater
# Scored in component: PlacaAgua
# X in 100 bins of 0.01 cm
# Y in 100 bins of 0.01 cm
# Z in 1 bin  of 0.01 cm
# DoseToMedium ( Gy ) : Sum   
0, 0, 0, 0.0002352082956349477
0, 1, 0, 0.0002370114380028099
0, 2, 0, 0.0002268525859108195
0, 3, 0, 0.0006918444414623082
0, 4, 0, 0
0, 5, 0, 0.0002288302785018459
0, 6, 0, 0.001142793684266508
0, 7, 0, 0.0004476373724173754
0, 8, 0, 0.0004715193354059011
0, 9, 0, 0.001392823760397732
0, 10, 0, 0.001165736117400229
0, 11, 0, 0.001390906050801277
0, 12, 0, 0.0004523226525634527
0, 13, 0, 0.002309626433998346
0, 14, 0, 0.001146525843068957
0, 15, 0, 0.002072649309411645
0, 16, 0, 0.002302104374393821
0, 17, 0, 0.001864328980445862
0, 18, 0, 0.000690823479089886
0, 19, 0, 0.001824614941142499
0, 20, 0, 0.002070560352876782
0, 21, 0, 0.002531950129196048
0, 22, 0, 0.002983383135870099
0, 23, 0, 0.001852509099990129
0, 24, 0, 0.002536345273256302
0, 25, 0, 0.003005136735737324
0, 26, 0, 0.003220778191462159
0, 27, 0, 0.003004523925483227
0, 28, 0, 0.003205969231203198
0, 29, 0, 0.003031086642295122
0, 30, 0, 0.004417723976075649
0, 31, 0, 0.004595308098942041
0, 32, 0, 0.003909176681190729
0, 33, 0, 0.003469818271696568
0, 34, 0, 0.003675532061606646
0, 35, 0, 0.004622469190508127
0, 36, 0, 0.004627491347491741
0, 37, 0, 0.00436975946649909
0, 38, 0, 0.0052401227876544
0, 39, 0, 0.004174854606389999
0, 40, 0, 0.004592586308717728
0, 41, 0, 0.006459275726228952
0, 42, 0, 0.005527363158762455
0, 43, 0, 0.006496255286037922
0, 44, 0, 0.005057242698967457
0, 45, 0, 0.004392349161207676
0, 46, 0, 0.004839338362216949
0, 47, 0, 0.002765500918030739
0, 48, 0, 0.005100050941109657
0, 49, 0, 0.004384260624647141
0, 50, 0, 0.005281770601868629
0, 51, 0, 0.003447332419455051
0, 52, 0, 0.003436967264860868
0, 53, 0, 0.005067449063062668
0, 54, 0, 0.006219207309186459
0, 55, 0, 0.005753953475505114
0, 56, 0, 0.003469727700576186
0, 57, 0, 0.003939084243029356
0, 58, 0, 0.005282049532979727
0, 59, 0, 0.004652028903365135
0, 60, 0, 0.004146319814026356
0, 61, 0, 0.00417052861303091
0, 62, 0, 0.005291544366627932
0, 63, 0, 0.005530582275241613
0, 64, 0, 0.002549674827605486
0, 65, 0, 0.004605501890182495
0, 66, 0, 0.003963830415159464
0, 67, 0, 0.003944095224142075
0, 68, 0, 0.004411188419908285
0, 69, 0, 0.002074782503768802
0, 70, 0, 0.004189987666904926
0, 71, 0, 0.002533187624067068
0, 72, 0, 0.00296402839012444
0, 73, 0, 0.003714681137353182
0, 74, 0, 0.002294595818966627
0, 75, 0, 0.002539193723350763
0, 76, 0, 0.002773473272100091
0, 77, 0, 0.001846621977165341
0, 78, 0, 0.001832986949011683
0, 79, 0, 0.002079488942399621
0, 80, 0, 0.002330729737877846
0, 81, 0, 0.002760510193184018
0, 82, 0, 0.0009227650589309633
0, 83, 0, 0.001847496489062905
0, 84, 0, 0.00231493916362524
0, 85, 0, 0.0002429657761240378
0, 86, 0, 0.0006808325997553766
0, 87, 0, 0.0009250762523151934
0, 88, 0, 0.001865143189206719
0, 89, 0, 0.0006886041956022382
0, 90, 0, 0.001380731468088925
0, 91, 0, 0.001385840121656656
0, 92, 0, 0.0009032092057168484
0, 93, 0, 0.0006901004235260189
0, 94, 0, 0.0002276499581057578
0, 95, 0, 0.0002313849690835923
0, 96, 0, 0.0009393340442329645
0, 97, 0, 0.0002336112083867192
0, 98, 0, 0.0002281632332596928
0, 99, 0, 0.000232776888879016
1, 0, 0, 0.0006901904125697911
1, 1, 0, 0
1, 2, 0, 0.0002243409544462338
1, 3, 0, 0.0002346939436392859
1, 4, 0, 0.0006752729532308877
1, 5, 0, 0.0002335607860004529
1, 6, 0, 0.000694161921273917
1, 7, 0, 0.0004490120918489993
1, 8, 0, 0.001379609690047801
1, 9, 0, 0.0004526508564595133
1, 10, 0, 0.000237123211263679
1, 11, 0, 0.001611995394341648
1, 12, 0, 0.001384882722049952
1, 13, 0, 0.001599907758645713
1, 14, 0, 0.002341291401535273
1, 15, 0, 0.002092938870191574
1, 16, 0, 0.001846744329668581
1, 17, 0, 0.002326146000996232
1, 18, 0, 0.00182979553937912
1, 19, 0, 0.002077467273920774
1, 20, 0, 0.001394082908518612
1, 21, 0, 0.0006875331164337695
1, 22, 0, 0.003197457874193788
1, 23, 0, 0.002293621888384223
1, 24, 0, 0.003252227557823062
1, 25, 0, 0.003704664530232549
1, 26, 0, 0.002774660941213369
1, 27, 0, 0.003465190995484591
1, 28, 0, 0.003436912316828966
1, 29, 0, 0.005098859779536724
1, 30, 0, 0.003016927745193243
1, 31, 0, 0.00276279030367732
1, 32, 0, 0.004179373383522034
1, 33, 0, 0.004873295780271292
1, 34, 0, 0.003712421050295234
1, 35, 0, 0.00371072581037879
1, 36, 0, 0.005082920659333467
1, 37, 0, 0.005272623151540756
1, 38, 0, 0.005306366365402937
1, 39, 0, 0.002765516052022576
1, 40, 0, 0.004842656664550304
1, 41, 0, 0.008323747664690018
1, 42, 0, 0.004394807852804661
1, 43, 0, 0.008073925971984863
1, 44, 0, 0.007609755732119083
1, 45, 0, 0.004168785642832518
1, 46, 0, 0.005078142508864403
1, 47, 0, 0.006213128101080656
1, 48, 0, 0.006223798729479313
1, 49, 0, 0.006239236798137426
1, 50, 0, 0.006721057463437319
1, 51, 0, 0.006964017637073994
1, 52, 0, 0.005822028499096632
1, 53, 0, 0.005764399655163288
1, 54, 0, 0.005525641143321991
1, 55, 0, 0.004836557898670435
1, 56, 0, 0.005322019103914499
1, 57, 0, 0.006218675523996353
1, 58, 0, 0.004151403903961182
1, 59, 0, 0.006004444323480129
1, 60, 0, 0.005066679790616035
1, 61, 0, 0.004132450092583895
1, 62, 0, 0.004382549785077572
1, 63, 0, 0.002079213270917535
1, 64, 0, 0.005035706330090761
1, 65, 0, 0.00416633952409029
1, 66, 0, 0.004859705455601215
1, 67, 0, 0.004142662510275841
1, 68, 0, 0.003685326548293233
1, 69, 0, 0.003206793451681733
1, 70, 0, 0.003009259002283216
1, 71, 0, 0.003892241278663278
1, 72, 0, 0.003446009708568454
1, 73, 0, 0.002768888371065259
1, 74, 0, 0.004423061851412058
1, 75, 0, 0.002570313401520252
1, 76, 0, 0.002078782301396132
1, 77, 0, 0.002990464679896832
1, 78, 0, 0.002532065147534013
1, 79, 0, 0.002086194697767496
1, 80, 0, 0.002515550935640931
1, 81, 0, 0.002095452044159174
1, 82, 0, 0.00184868962969631
1, 83, 0, 0.00208079838193953
1, 84, 0, 0.002085474785417318
1, 85, 0, 0.00185277487616986
1, 86, 0, 0.001170599600300193
1, 87, 0, 0.0006716594798490405
1, 88, 0, 0.001857987837865949
1, 89, 0, 0.000463040720205754
1, 90, 0, 0.0004558034997899085
1, 91, 0, 0.001612740219570696
1, 92, 0, 0.001144923735409975
1, 93, 0, 0.000232271762797609
1, 94, 0, 0.0009044717298820615
1, 95, 0, 0.0006897823768667877
1, 96, 0, 0.0004674910451285541
1, 97, 0, 0
1, 98, 0, 0.000462255091406405
1, 99, 0, 0.0004641614214051515
2, 0, 0, 0.0004566716670524329
2, 1, 0, 0.0002245787181891501
2, 2, 0, 0.0002321453794138506
2, 3, 0, 0.0004535153857432306
2, 4, 0, 0.001611937303096056
2, 5, 0, 0.0004615849175024778
2, 6, 0, 0.000916198012419045
2, 7, 0, 0.001630026614293456
2, 8, 0, 0.0006893156678415835
2, 9, 0, 0.0006838377448730171
2, 10, 0, 0.001148808281868696
2, 11, 0, 0.002098709810525179
2, 12, 0, 0.002748330822214484
2, 13, 0, 0.0006852857768535614
2, 14, 0, 0.002063306514173746
2, 15, 0, 0.001382239744998515
2, 16, 0, 0.00139362015761435
2, 17, 0, 0.002773562911897898
2, 18, 0, 0.001591191859915853
2, 19, 0, 0.002750475890934467
2, 20, 0, 0.002560078632086515
2, 21, 0, 0.001846254919655621
2, 22, 0, 0.003243536921218038
2, 23, 0, 0.002068576868623495
2, 24, 0, 0.0037058109883219
2, 25, 0, 0.003205281915143132
2, 26, 0, 0.004850760102272034
2, 27, 0, 0.00185920053627342
2, 28, 0, 0.003937381319701672
2, 29, 0, 0.004186353180557489
2, 30, 0, 0.004823542665690184
2, 31, 0, 0.005069742444902658
2, 32, 0, 0.0059721814468503
2, 33, 0, 0.005074793938547373
2, 34, 0, 0.00457616476342082
2, 35, 0, 0.004847832024097443
2, 36, 0, 0.004813573323190212
2, 37, 0, 0.00487484410405159
2, 38, 0, 0.004639849066734314
2, 39, 0, 0.005777454003691673
2, 40, 0, 0.008300404064357281
2, 41, 0, 0.006902344524860382
2, 42, 0, 0.006672036834061146
2, 43, 0, 0.006242178846150637
2, 44, 0, 0.005775521975010633
2, 45, 0, 0.006504747085273266
2, 46, 0, 0.006484632845968008
2, 47, 0, 0.005535630974918604
2, 48, 0, 0.008086511865258217
2, 49, 0, 0.005304525606334209
2, 50, 0, 0.0066881338134408
2, 51, 0, 0.006442645099014044
2, 52, 0, 0.006226701661944389
2, 53, 0, 0.005056221038103104
2, 54, 0, 0.006926655769348145
2, 55, 0, 0.008314392529428005
2, 56, 0, 0.004636858589947224
2, 57, 0, 0.003707920899614692
2, 58, 0, 0.006246123928576708
2, 59, 0, 0.006909541320055723
2, 60, 0, 0.004646285902708769
2, 61, 0, 0.006475802976638079
2, 62, 0, 0.006006259471178055
2, 63, 0, 0.005744570400565863
2, 64, 0, 0.005479841958731413
2, 65, 0, 0.003969561774283648
2, 66, 0, 0.004162411205470562
2, 67, 0, 0.003222347237169743
2, 68, 0, 0.004813869949430227
2, 69, 0, 0.005723653361201286
2, 70, 0, 0.005808118265122175
2, 71, 0, 0.004164019133895636
2, 72, 0, 0.00368052814155817
2, 73, 0, 0.003242194419726729
2, 74, 0, 0.00347322435118258
2, 75, 0, 0.002751019084826112
2, 76, 0, 0.001384049537591636
2, 77, 0, 0.002520679030567408
2, 78, 0, 0.003458718303591013
2, 79, 0, 0.002316304016858339
2, 80, 0, 0.003226048080250621
2, 81, 0, 0.001854480826295912
2, 82, 0, 0.001833967748098075
2, 83, 0, 0.002301628002896905
2, 84, 0, 0.001373551320284605
2, 85, 0, 0.001382661634124815
2, 86, 0, 0.001861033262684941
2, 87, 0, 0.001403124653734267
2, 88, 0, 0.001147072878666222
2, 89, 0, 0.001140877488069236
2, 90, 0, 0.001138195162639022
2, 91, 0, 0.0009369806502945721
2, 92, 0, 0.0004673964576795697
2, 93, 0, 0.0006949835224077106
2, 94, 0, 0.0004631182819139212
2, 95, 0, 0.0004602052504196763
2, 96, 0, 0.0004646644520107657
2, 97, 0, 0.0004598613304551691
2, 98, 0, 0.0006840034620836377
2, 99, 0, 0.0002274262806167826
3, 0, 0, 0.0002243931230623275
3, 1, 0, 0.0006971910479478538
3, 2, 0, 0.001393634709529579
3, 3, 0, 0
3, 4, 0, 0.0002290265983901918
3, 5, 0, 0.000936525349970907
3, 6, 0, 0.0002262021298520267
3, 7, 0, 0.001401218585669994
3, 8, 0, 0.001162641914561391
3, 9, 0, 0.001610241830348969
3, 10, 0, 0.0002398343494860455
3, 11, 0, 0.00136900634970516
3, 12, 0, 0.0009169341647066176
3, 13, 0, 0.001138759544119239
3, 14, 0, 0.0009419083944521844
3, 15, 0, 0.002091615926474333
3, 16, 0, 0.001620600232854486
3, 17, 0, 0.003008302999660373
3, 18, 0, 0.003919713199138641
3, 19, 0, 0.002547706477344036
3, 20, 0, 0.003219810547307134
3, 21, 0, 0.001846838276833296
3, 22, 0, 0.002337176818400621
3, 23, 0, 0.004593587014824152
3, 24, 0, 0.005096676759421825
3, 25, 0, 0.003251103917136788
3, 26, 0, 0.004368945024907589
3, 27, 0, 0.003439573803916574
3, 28, 0, 0.003918222151696682
3, 29, 0, 0.003496263874694705
3, 30, 0, 0.003695396240800619
3, 31, 0, 0.004142515361309052
3, 32, 0, 0.006191493943333626
3, 33, 0, 0.00279261521063745
3, 34, 0, 0.005806318018585443
3, 35, 0, 0.00506869237869978
3, 36, 0, 0.005773161537945271
3, 37, 0, 0.005060737021267414
3, 38, 0, 0.006672312971204519
3, 39, 0, 0.006910743657499552
3, 40, 0, 0.005746403243392706
3, 41, 0, 0.006706187967211008
3, 42, 0, 0.007599676493555307
3, 43, 0, 0.006690244656056166
3, 44, 0, 0.006888125091791153
3, 45, 0, 0.009952636435627937
3, 46, 0, 0.006473730783909559
3, 47, 0, 0.007182179484516382
3, 48, 0, 0.009257584810256958
3, 49, 0, 0.007392304949462414
3, 50, 0, 0.006003580987453461
3, 51, 0, 0.007588665466755629
3, 52, 0, 0.007867960259318352
3, 53, 0, 0.006910720374435186
3, 54, 0, 0.007212979719042778
3, 55, 0, 0.007166366092860699
3, 56, 0, 0.007152117788791656
3, 57, 0, 0.006669622380286455
3, 58, 0, 0.009697878733277321
3, 59, 0, 0.004603925626724958
3, 60, 0, 0.007141385227441788
3, 61, 0, 0.00528863025829196
3, 62, 0, 0.005758693907409906
3, 63, 0, 0.005032834131270647
3, 64, 0, 0.005101060029119253
3, 65, 0, 0.006709261797368526
3, 66, 0, 0.005087561439722776
3, 67, 0, 0.004834971856325865
3, 68, 0, 0.004629684146493673
3, 69, 0, 0.005740367341786623
3, 70, 0, 0.00480355741456151
3, 71, 0, 0.004858222790062428
3, 72, 0, 0.003703996539115906
3, 73, 0, 0.00484939943999052
3, 74, 0, 0.005562260746955872
3, 75, 0, 0.003482133615761995
3, 76, 0, 0.003704963950440288
3, 77, 0, 0.002297465223819017
3, 78, 0, 0.001847636071033776
3, 79, 0, 0.003435029648244381
3, 80, 0, 0.002560032298788428
3, 81, 0, 0.002062153769657016
3, 82, 0, 0.002763108117505908
3, 83, 0, 0.002535072155296803
3, 84, 0, 0.0004686375905293971
3, 85, 0, 0.0004543110262602568
3, 86, 0, 0.002296798396855593
3, 87, 0, 0.001156240585260093
3, 88, 0, 0.001855318085290492
3, 89, 0, 0.001370182959362864
3, 90, 0, 0.001399179338477552
3, 91, 0, 0.0009290556190535426
3, 92, 0, 0.001155500183813274
3, 93, 0, 0.001393401878885925
3, 94, 0, 0.001833863207139075
3, 95, 0, 0.0004554536717478186
3, 96, 0, 0
3, 97, 0, 0.0004573288024403155
3, 98, 0, 0.000698533549439162
3, 99, 0, 0
4, 0, 0, 0.0002227357617812231
4, 1, 0, 0.0004709201457444578
4, 2, 0, 0
4, 3, 0, 0.000691618537530303
4, 4, 0, 0.0006818217225372791
4, 5, 0, 0.001156633719801903
4, 6, 0, 0.0009324901620857418
4, 7, 0, 0.0006905989721417427
4, 8, 0, 0.0002319081831956282
4, 9, 0, 0.002063849940896034
4, 10, 0, 0.001614277716726065
4, 11, 0, 0.001143308239988983
4, 12, 0, 0.001155388308688998
4, 13, 0, 0.002325497101992369
4, 14, 0, 0.001145001035183668
4, 15, 0, 0.00183408975135535
4, 16, 0, 0.00186165445484221
4, 17, 0, 0.001602137112058699
4, 18, 0, 0.003490242408588529
4, 19, 0, 0.003209059592336416
4, 20, 0, 0.003241768106818199
4, 21, 0, 0.003233849769458175
4, 22, 0, 0.003231789683923125
4, 23, 0, 0.002528833225369453
4, 24, 0, 0.005053775385022163
4, 25, 0, 0.005547596607357264
4, 26, 0, 0.005526113323867321
4, 27, 0, 0.003715875558555126
4, 28, 0, 0.002062244573608041
4, 29, 0, 0.004614026285707951
4, 30, 0, 0.003935108426958323
4, 31, 0, 0.004848364274948835
4, 32, 0, 0.006007767282426357
4, 33, 0, 0.005547722335904837
4, 34, 0, 0.007834126241505146
4, 35, 0, 0.005586546380072832
4, 36, 0, 0.007585788145661354
4, 37, 0, 0.005310815293341875
4, 38, 0, 0.008593717589974403
4, 39, 0, 0.009439250454306602
4, 40, 0, 0.007401683833450079
4, 41, 0, 0.006191944237798452
4, 42, 0, 0.006242076866328716
4, 43, 0, 0.007867567241191864
4, 44, 0, 0.009637615643441677
4, 45, 0, 0.005501304287463427
4, 46, 0, 0.007859922014176846
4, 47, 0, 0.00666210288181901
4, 48, 0, 0.00831681489944458
4, 49, 0, 0.006701675709336996
4, 50, 0, 0.01014253031462431
4, 51, 0, 0.007380079012364149
4, 52, 0, 0.006428167223930359
4, 53, 0, 0.007859993726015091
4, 54, 0, 0.006010474171489477
4, 55, 0, 0.008061791770160198
4, 56, 0, 0.00718194805085659
4, 57, 0, 0.008038964122533798
4, 58, 0, 0.00825868546962738
4, 59, 0, 0.005057034082710743
4, 60, 0, 0.005567049607634544
4, 61, 0, 0.006227468140423298
4, 62, 0, 0.007603981997817755
4, 63, 0, 0.004176017828285694
4, 64, 0, 0.006895523983985186
4, 65, 0, 0.006925581023097038
4, 66, 0, 0.006863931193947792
4, 67, 0, 0.006719384808093309
4, 68, 0, 0.006914677564054728
4, 69, 0, 0.004871571436524391
4, 70, 0, 0.004844827577471733
4, 71, 0, 0.004141534678637981
4, 72, 0, 0.005279944278299809
4, 73, 0, 0.002774536842480302
4, 74, 0, 0.006244858261197805
4, 75, 0, 0.003700502449646592
4, 76, 0, 0.005093548912554979
4, 77, 0, 0.003446974791586399
4, 78, 0, 0.0043772435747087
4, 79, 0, 0.002299477579072118
4, 80, 0, 0.002981344005092978
4, 81, 0, 0.002287180628627539
4, 82, 0, 0.002073912415653467
4, 83, 0, 0.002745365956798196
4, 84, 0, 0.002274403115734458
4, 85, 0, 0.002079091500490904
4, 86, 0, 0.001834178459830582
4, 87, 0, 0.001151320524513721
4, 88, 0, 0.000921662722248584
4, 89, 0, 0.0009250061120837927
4, 90, 0, 0.0006910327356308699
4, 91, 0, 0.001853509340435266
4, 92, 0, 0.001601884607225657
4, 93, 0, 0.0009340285323560238
4, 94, 0, 0.0009375166846439242
4, 95, 0, 0.0009284861152991652
4, 96, 0, 0.001140571315772831
4, 97, 0, 0.0004642705025617033
4, 98, 0, 0.0006896433769725263
4, 99, 0, 0.0002290903794346377
5, 0, 0, 0.000458349211839959
5, 1, 0, 0.0004686600295826793
5, 2, 0, 0.0004738792486023158
5, 3, 0, 0.0006801660638302565
5, 4, 0, 0.0006852411315776408
5, 5, 0, 0.0009284427505917847
5, 6, 0, 0.0004666564927902073
5, 7, 0, 0.0006946335197426379
5, 8, 0, 0.0002297407481819391
5, 9, 0, 0.002088102977722883
5, 10, 0, 0.0006781124975532293
5, 11, 0, 0.002554852748289704
5, 12, 0, 0.001153221819549799
5, 13, 0, 0.002087156753987074
5, 14, 0, 0.002311195945367217
5, 15, 0, 0.004153713583946228
5, 16, 0, 0.003005719510838389
5, 17, 0, 0.001394410151988268
5, 18, 0, 0.003257141215726733
5, 19, 0, 0.004608116112649441
5, 20, 0, 0.002991874469444156
5, 21, 0, 0.003231335431337357
5, 22, 0, 0.004859425593167543
5, 23, 0, 0.002989809960126877
5, 24, 0, 0.003916187677532434
5, 25, 0, 0.00460009416565299
5, 26, 0, 0.002751367865130305
5, 27, 0, 0.005947187077254057
5, 28, 0, 0.005771208554506302
5, 29, 0, 0.005966078490018845
5, 30, 0, 0.007357573602348566
5, 31, 0, 0.008562161587178707
5, 32, 0, 0.004616306163370609
5, 33, 0, 0.006456386763602495
5, 34, 0, 0.007181545253843069
5, 35, 0, 0.006208614911884069
5, 36, 0, 0.007638913579285145
5, 37, 0, 0.007404949981719255
5, 38, 0, 0.007158161606639624
5, 39, 0, 0.005971148144453764
5, 40, 0, 0.007847411558032036
5, 41, 0, 0.008777902461588383
5, 42, 0, 0.009905493818223476
5, 43, 0, 0.009493379853665829
5, 44, 0, 0.008094901219010353
5, 45, 0, 0.009639839641749859
5, 46, 0, 0.008097126148641109
5, 47, 0, 0.00856744684278965
5, 48, 0, 0.01010235399007797
5, 49, 0, 0.008070459589362144
5, 50, 0, 0.008505428209900856
5, 51, 0, 0.01128021627664566
5, 52, 0, 0.007377565838396549
5, 53, 0, 0.007860403507947922
5, 54, 0, 0.007606155704706907
5, 55, 0, 0.00759669067338109
5, 56, 0, 0.009928743354976177
5, 57, 0, 0.006945052184164524
5, 58, 0, 0.007855293340981007
5, 59, 0, 0.007835559546947479
5, 60, 0, 0.007379441987723112
5, 61, 0, 0.008711724542081356
5, 62, 0, 0.005329039879143238
5, 63, 0, 0.006941296625882387
5, 64, 0, 0.007424193434417248
5, 65, 0, 0.005729031749069691
5, 66, 0, 0.006683624349534512
5, 67, 0, 0.004161879885941744
5, 68, 0, 0.007621900178492069
5, 69, 0, 0.008082849904894829
5, 70, 0, 0.004583718255162239
5, 71, 0, 0.003925278317183256
5, 72, 0, 0.003961495589464903
5, 73, 0, 0.00577172078192234
5, 74, 0, 0.00440301513299346
5, 75, 0, 0.00532591063529253
5, 76, 0, 0.004175657406449318
5, 77, 0, 0.002773272106423974
5, 78, 0, 0.003451132914051414
5, 79, 0, 0.004173935391008854
5, 80, 0, 0.004146834369748831
5, 81, 0, 0.002085035899654031
5, 82, 0, 0.002526611788198352
5, 83, 0, 0.002083444967865944
5, 84, 0, 0.0004588350711856037
5, 85, 0, 0.002319988794624805
5, 86, 0, 0.001386080635711551
5, 87, 0, 0.0006802810821682215
5, 88, 0, 0.001838938915170729
5, 89, 0, 0.002091059926897287
5, 90, 0, 0.001628153957426548
5, 91, 0, 0.001617419999092817
5, 92, 0, 0.001166581292636693
5, 93, 0, 0.002082580234855413
5, 94, 0, 0.00092389399651438
5, 95, 0, 0.0002240646863356233
5, 96, 0, 0.001600190531462431
5, 97, 0, 0.0004565793205983937
5, 98, 0, 0.001627873745746911
5, 99, 0, 0.001156950718723238
6, 0, 0, 0.001137926010414958
6, 1, 0, 0.000459999981103465
6, 2, 0, 0.0009133327403105795
6, 3, 0, 0.001378009445033967
6, 4, 0, 0.000472425832413137
6, 5, 0, 0.0006904040346853435
6, 6, 0, 0.0009076035930775106
6, 7, 0, 0.00112213019747287
6, 8, 0, 0.002075395779684186
6, 9, 0, 0.002771810861304402
6, 10, 0, 0.001616882509551942
6, 11, 0, 0.001865276135504246
6, 12, 0, 0.0007011840934865177
6, 13, 0, 0.001852423534728587
6, 14, 0, 0.00252405134961009
6, 15, 0, 0.0009163380600512028
6, 16, 0, 0.001600617542862892
6, 17, 0, 0.002076712669804692
6, 18, 0, 0.003897096728906035
6, 19, 0, 0.002066966379061341
6, 20, 0, 0.004154049791395664
6, 21, 0, 0.005711514968425035
6, 22, 0, 0.003027969971299171
6, 23, 0, 0.003905462101101875
6, 24, 0, 0.003939298912882805
6, 25, 0, 0.005540261045098305
6, 26, 0, 0.00321939866989851
6, 27, 0, 0.005354786291718483
6, 28, 0, 0.006437146570533514
6, 29, 0, 0.006731953471899033
6, 30, 0, 0.005537176039069891
6, 31, 0, 0.007811033166944981
6, 32, 0, 0.006667583715170622
6, 33, 0, 0.007906759157776833
6, 34, 0, 0.009482793509960175
6, 35, 0, 0.007852073758840561
6, 36, 0, 0.008089025504887104
6, 37, 0, 0.009691310115158558
6, 38, 0, 0.008977770805358887
6, 39, 0, 0.008520253002643585
6, 40, 0, 0.008544640615582466
6, 41, 0, 0.008522011339664459
6, 42, 0, 0.008289312943816185
6, 43, 0, 0.008797833696007729
6, 44, 0, 0.008308713324368
6, 45, 0, 0.008574424311518669
6, 46, 0, 0.009006084874272346
6, 47, 0, 0.009673059917986393
6, 48, 0, 0.007853386923670769
6, 49, 0, 0.007186191156506538
6, 50, 0, 0.009004539810121059
6, 51, 0, 0.01084424089640379
6, 52, 0, 0.01037755515426397
6, 53, 0, 0.00922800786793232
6, 54, 0, 0.008800464682281017
6, 55, 0, 0.008272278122603893
6, 56, 0, 0.01067017205059528
6, 57, 0, 0.01062579825520515
6, 58, 0, 0.009240222163498402
6, 59, 0, 0.0103233065456152
6, 60, 0, 0.009883874095976353
6, 61, 0, 0.006689193192869425
6, 62, 0, 0.00897266436368227
6, 63, 0, 0.008206469006836414
6, 64, 0, 0.008774930611252785
6, 65, 0, 0.008728153072297573
6, 66, 0, 0.006680416874587536
6, 67, 0, 0.009732992388308048
6, 68, 0, 0.005316449329257011
6, 69, 0, 0.006237461231648922
6, 70, 0, 0.006732371635735035
6, 71, 0, 0.004425489343702793
6, 72, 0, 0.00690925121307373
6, 73, 0, 0.007163289003074169
6, 74, 0, 0.005301063880324364
6, 75, 0, 0.006931067910045385
6, 76, 0, 0.005107150413095951
6, 77, 0, 0.00414960365742445
6, 78, 0, 0.004601303022354841
6, 79, 0, 0.004844945855438709
6, 80, 0, 0.002573054982349277
6, 81, 0, 0.00345949805341661
6, 82, 0, 0.003658767323940992
6, 83, 0, 0.002769658342003822
6, 84, 0, 0.00138339726254344
6, 85, 0, 0.002298350678756833
6, 86, 0, 0.0016064727678895
6, 87, 0, 0.001620726194232702
6, 88, 0, 0.001836785231716931
6, 89, 0, 0.001163416425697505
6, 90, 0, 0.001388343865983188
6, 91, 0, 0.001853890484198928
6, 92, 0, 0.001615195418708026
6, 93, 0, 0.0009270628797821701
6, 94, 0, 0.001149787218309939
6, 95, 0, 0.001588522340171039
6, 96, 0, 0.001169239287264645
6, 97, 0, 0.001144411391578615
6, 98, 0, 0.0004699306155089289
6, 99, 0, 0.001139919506385922
7, 0, 0, 0.0009275339543819427
7, 1, 0, 0.0004613091878127307
7, 2, 0, 0.0006861854926683009
7, 3, 0, 0.0006943022017367184
7, 4, 0, 0.000927026616409421
7, 5, 0, 0.0009003656450659037
7, 6, 0, 0.001407324918545783
7, 7, 0, 0.002088603330776095
7, 8, 0, 0.002527864649891853
7, 9, 0, 0.001841302728280425
7, 10, 0, 0.001826840336434543
7, 11, 0, 0.003690662328153849
7, 12, 0, 0.001834666123613715
7, 13, 0, 0.001820181263610721
7, 14, 0, 0.004158988129347563
7, 15, 0, 0.002529887482523918
7, 16, 0, 0.004799300339072943
7, 17, 0, 0.001848489046096802
7, 18, 0, 0.004838163498789072
7, 19, 0, 0.004616136662662029
7, 20, 0, 0.002758391667157412
7, 21, 0, 0.00439451215788722
7, 22, 0, 0.00485076243057847
7, 23, 0, 0.005537292454391718
7, 24, 0, 0.005277226213365793
7, 25, 0, 0.004374771844595671
7, 26, 0, 0.006443343125283718
7, 27, 0, 0.006447580177336931
7, 28, 0, 0.006679759826511145
7, 29, 0, 0.004614999052137136
7, 30, 0, 0.007149034179747105
7, 31, 0, 0.007600048556923866
7, 32, 0, 0.007658714894205332
7, 33, 0, 0.008318115025758743
7, 34, 0, 0.008760171942412853
7, 35, 0, 0.008558072149753571
7, 36, 0, 0.007613686379045248
7, 37, 0, 0.007161869667470455
7, 38, 0, 0.009034853428602219
7, 39, 0, 0.008793920278549194
7, 40, 0, 0.009492938406765461
7, 41, 0, 0.008276501670479774
7, 42, 0, 0.01082624401897192
7, 43, 0, 0.009661335498094559
7, 44, 0, 0.011720210313797
7, 45, 0, 0.01154423505067825
7, 46, 0, 0.01086908765137196
7, 47, 0, 0.009436077438294888
7, 48, 0, 0.01035159919410944
7, 49, 0, 0.01014387235045433
7, 50, 0, 0.008306891657412052
7, 51, 0, 0.01038828119635582
7, 52, 0, 0.01267700735479593
7, 53, 0, 0.01148978341370821
7, 54, 0, 0.01044780202209949
7, 55, 0, 0.01104672718793154
7, 56, 0, 0.01175681967288256
7, 57, 0, 0.008603979833424091
7, 58, 0, 0.01199818216264248
7, 59, 0, 0.009943860583007336
7, 60, 0, 0.008300269953906536
7, 61, 0, 0.009493043646216393
7, 62, 0, 0.009683172218501568
7, 63, 0, 0.009191430173814297
7, 64, 0, 0.008275040425360203
7, 65, 0, 0.005566990002989769
7, 66, 0, 0.006474354770034552
7, 67, 0, 0.006019566673785448
7, 68, 0, 0.008998703211545944
7, 69, 0, 0.00627664802595973
7, 70, 0, 0.006500513292849064
7, 71, 0, 0.004853992722928524
7, 72, 0, 0.004855786915868521
7, 73, 0, 0.004623109474778175
7, 74, 0, 0.006460693199187517
7, 75, 0, 0.005310571752488613
7, 76, 0, 0.004837177228182554
7, 77, 0, 0.004847344011068344
7, 78, 0, 0.003460450330749154
7, 79, 0, 0.004593767691403627
7, 80, 0, 0.004841061308979988
7, 81, 0, 0.003016021801158786
7, 82, 0, 0.004620238672941923
7, 83, 0, 0.002786323195323348
7, 84, 0, 0.002786182798445225
7, 85, 0, 0.002066888613626361
7, 86, 0, 0.001844559097662568
7, 87, 0, 0.002066647866740823
7, 88, 0, 0.00323173007927835
7, 89, 0, 0.001853317604400218
7, 90, 0, 0.001838345895521343
7, 91, 0, 0.001601398922502995
7, 92, 0, 0.0006842643488198519
7, 93, 0, 0.0009116597357206047
7, 94, 0, 0.002523195464164019
7, 95, 0, 0.0009222845546901226
7, 96, 0, 0.001612329622730613
7, 97, 0, 0.0004634143551811576
7, 98, 0, 0.0004600893007591367
7, 99, 0, 0.0009336993680335581
8, 0, 0, 0.0004662099236156791
8, 1, 0, 0.0004705858300440013
8, 2, 0, 0.001167488982900977
8, 3, 0, 0.000231543046538718
8, 4, 0, 0.001846398692578077
8, 5, 0, 0.001387638621963561
8, 6, 0, 0.001852771150879562
8, 7, 0, 0.001380713423714042
8, 8, 0, 0.001390874851495028
8, 9, 0, 0.001403608592227101
8, 10, 0, 0.003700613044202328
8, 11, 0, 0.002079829107969999
8, 12, 0, 0.002074165269732475
8, 13, 0, 0.003226114204153419
8, 14, 0, 0.002779599977657199
8, 15, 0, 0.003480623010545969
8, 16, 0, 0.003693822538480163
8, 17, 0, 0.00276798871345818
8, 18, 0, 0.003453115932643414
8, 19, 0, 0.002306799637153745
8, 20, 0, 0.004640179220587015
8, 21, 0, 0.00690864073112607
8, 22, 0, 0.00533031253144145
8, 23, 0, 0.006710783112794161
8, 24, 0, 0.004177517257630825
8, 25, 0, 0.005515617784112692
8, 26, 0, 0.006004126742482185
8, 27, 0, 0.007623257581144571
8, 28, 0, 0.007160222623497248
8, 29, 0, 0.008768140338361263
8, 30, 0, 0.009239040315151215
8, 31, 0, 0.006958873476833105
8, 32, 0, 0.008061925880610943
8, 33, 0, 0.009954308159649372
8, 34, 0, 0.008335280232131481
8, 35, 0, 0.009221907705068588
8, 36, 0, 0.009879059158265591
8, 37, 0, 0.008734283968806267
8, 38, 0, 0.01081658527255058
8, 39, 0, 0.008106295950710773
8, 40, 0, 0.0150082278996706
8, 41, 0, 0.01245098561048508
8, 42, 0, 0.01042797323316336
8, 43, 0, 0.01154908630996943
8, 44, 0, 0.0115123251453042
8, 45, 0, 0.01220849901437759
8, 46, 0, 0.01224973611533642
8, 47, 0, 0.01267540641129017
8, 48, 0, 0.01042004022747278
8, 49, 0, 0.009496303275227547
8, 50, 0, 0.01248221565037966
8, 51, 0, 0.01152391359210014
8, 52, 0, 0.01314942631870508
8, 53, 0, 0.01498921681195498
8, 54, 0, 0.01226066425442696
8, 55, 0, 0.008790436200797558
8, 56, 0, 0.01081342715770006
8, 57, 0, 0.01062811072915792
8, 58, 0, 0.01083495374768972
8, 59, 0, 0.01264326646924019
8, 60, 0, 0.01222644653171301
8, 61, 0, 0.01128149684518576
8, 62, 0, 0.01124054286628962
8, 63, 0, 0.01246549282222986
8, 64, 0, 0.008298364467918873
8, 65, 0, 0.01058110129088163
8, 66, 0, 0.009733631275594234
8, 67, 0, 0.009008052758872509
8, 68, 0, 0.009642107412219048
8, 69, 0, 0.006881092675030231
8, 70, 0, 0.007357552647590637
8, 71, 0, 0.008066039532423019
8, 72, 0, 0.006662128958851099
8, 73, 0, 0.003923438489437103
8, 74, 0, 0.005105053540319204
8, 75, 0, 0.005055366549640894
8, 76, 0, 0.003227517008781433
8, 77, 0, 0.00579381175339222
8, 78, 0, 0.0055234688334167
8, 79, 0, 0.0039116689004004
8, 80, 0, 0.003909660503268242
8, 81, 0, 0.003476941026747227
8, 82, 0, 0.003014354035258293
8, 83, 0, 0.002320392522960901
8, 84, 0, 0.00371629255823791
8, 85, 0, 0.001154797617346048
8, 86, 0, 0.002962193451821804
8, 87, 0, 0.001628775731660426
8, 88, 0, 0.001618246897123754
8, 89, 0, 0.001634106156416237
8, 90, 0, 0.001142396125942469
8, 91, 0, 0.001857096212916076
8, 92, 0, 0.001383486320264637
8, 93, 0, 0.002070635091513395
8, 94, 0, 0.0006859260029159486
8, 95, 0, 0.001153611694462597
8, 96, 0, 0.00229983008466661
8, 97, 0, 0.0006959160673432052
8, 98, 0, 0.0007010962581261992
8, 99, 0, 0.0009226460824720562
9, 0, 0, 0.0002292286226293072
9, 1, 0, 0.001821265439502895
9, 2, 0, 0.001389345736242831
9, 3, 0, 0.0004579145752359182
9, 4, 0, 0.001149235642515123
9, 5, 0, 0.003001730889081955
9, 6, 0, 0.00208358746021986
9, 7, 0, 0.00162205018568784
9, 8, 0, 0.002083564409986138
9, 9, 0, 0.002998683135956526
9, 10, 0, 0.001390165532939136
9, 11, 0, 0.001629782258532941
9, 12, 0, 0.002781594404950738
9, 13, 0, 0.002761509269475937
9, 14, 0, 0.00297389761544764
9, 15, 0, 0.004621098283678293
9, 16, 0, 0.003716096747666597
9, 17, 0, 0.005321263335645199
9, 18, 0, 0.004143827594816685
9, 19, 0, 0.004625790752470493
9, 20, 0, 0.006510191131383181
9, 21, 0, 0.006444099359214306
9, 22, 0, 0.005108127370476723
9, 23, 0, 0.004149795975536108
9, 24, 0, 0.006476994138211012
9, 25, 0, 0.004614053294062614
9, 26, 0, 0.008527327328920364
9, 27, 0, 0.00484093651175499
9, 28, 0, 0.006879929453134537
9, 29, 0, 0.006219771225005388
9, 30, 0, 0.008037763647735119
9, 31, 0, 0.007182801607996225
9, 32, 0, 0.006452556699514389
9, 33, 0, 0.01085675414651632
9, 34, 0, 0.006243038456887007
9, 35, 0, 0.01038352586328983
9, 36, 0, 0.01083542872220278
9, 37, 0, 0.01201581489294767
9, 38, 0, 0.00952520314604044
9, 39, 0, 0.008547973819077015
9, 40, 0, 0.01107764896005392
9, 41, 0, 0.01290928293019533
9, 42, 0, 0.01059707347303629
9, 43, 0, 0.01291741151362658
9, 44, 0, 0.01149537600576878
9, 45, 0, 0.01750245131552219
9, 46, 0, 0.01387600228190422
9, 47, 0, 0.01245463639497757
9, 48, 0, 0.01548354048281908
9, 49, 0, 0.01427058409899473
9, 50, 0, 0.009689168073236942
9, 51, 0, 0.01638706959784031
9, 52, 0, 0.01296420022845268
9, 53, 0, 0.01598508283495903
9, 54, 0, 0.01014816761016846
9, 55, 0, 0.01431734394282103
9, 56, 0, 0.01292801555246115
9, 57, 0, 0.01079152151942253
9, 58, 0, 0.00993707962334156
9, 59, 0, 0.01227209158241749
9, 60, 0, 0.008116528391838074
9, 61, 0, 0.01181310974061489
9, 62, 0, 0.01011268980801105
9, 63, 0, 0.01079826336354017
9, 64, 0, 0.009665471501648426
9, 65, 0, 0.009221077896654606
9, 66, 0, 0.009477702900767326
9, 67, 0, 0.007213314529508352
9, 68, 0, 0.009899522177875042
